1629234443.00
64.000000
-0.00
-0.00
-0.00
-0.00
-0.00
-0.00
-0.00
-0.00
-0.00
-0.00
0.00
0.01
0.01
-0.00
-0.03
-0.05
-0.05
0.00
0.13
0.36
0.66
1.01
1.37
1.72
2.06
2.40
2.79
3.24
3.80
4.42
5.06
5.66
6.20
6.68
7.15
7.68
8.31
9.14
10.09
11.04
11.88
12.56
13.14
13.76
14.65
15.96
17.91
20.32
22.90
25.38
27.58
29.57
31.68
34.32
37.81
42.54
48.15
54.10
59.83
64.97
69.58
74.14
79.34
85.71
93.76
103.00
112.62
121.73
129.77
136.75
143.30
150.75
157.77
166.64
177.95
191.79
206.97
220.57
228.25
225.36
208.53
176.87
132.76
80.05
23.07
-34.94
-92.44
-149.16
-205.23
-260.37
-313.74
-363.87
-409.83
-450.91
-486.50
-515.74
-537.23
-549.22
-549.96
-538.37
-514.21
-478.68
-433.87
-382.43
-326.99
-269.81
-212.64
-156.73
-103.11
-52.63
-6.24
35.20
71.04
100.98
125.14
144.00
158.25
168.61
175.72
180.01
181.79
181.31
178.80
174.56
168.94
162.32
155.06
147.46
139.75
132.06
124.42
116.83
109.21
101.52
93.75
86.01
78.48
71.36
64.82
58.87
53.40
48.12
42.76
37.19
31.48
25.93
20.91
16.75
13.51
10.92
8.51
5.75
2.36
-1.57
-5.56
-9.03
-11.49
-12.79
-13.22
-13.34
-13.81
-15.18
-17.83
-21.78
-26.51
-30.85
-33.05
-31.36
-24.70
-13.38
0.78
15.03
26.65
33.91
36.63
35.96
33.80
31.86
31.07
31.39
32.02
31.97
30.54
27.66
23.83
19.83
16.35
13.67
11.78
10.52
9.91
10.14
11.38
13.47
15.79
17.44
17.59
15.93
12.71
8.58
4.39
0.86
-1.62
-2.96
-3.34
-3.08
-2.57
-2.14
-1.97
-2.10
-2.42
-2.71
-2.77
-2.51
-1.98
-1.37
-0.92
-0.74
-0.83
-1.02
-1.09
-0.87
-0.21
0.96
2.75
5.25
8.53
12.43
16.55
20.27
22.93
24.12
23.76
22.14
19.68
16.73
13.42
9.86
5.96
1.91
-1.92
-5.13
-7.54
-9.29
-10.75
-12.29
-14.07
-15.90
-17.38
-18.14
-18.07
-17.33
-16.33
-15.45
-14.91
-14.71
-14.73
-14.76
-14.59
-14.06
-12.96
-11.15
-8.56
-5.32
-1.82
1.42
3.87
5.25
5.56
5.01
3.91
2.42
0.67
-1.30
-3.33
-5.16
-6.43
-6.93
-6.64
-5.78
-4.65
-3.57
-2.71
-2.19
-2.00
-2.11
-2.47
-2.97
-3.57
-4.21
-4.88
-5.61
-6.38
-7.11
-7.66
-7.80
-7.34
-6.08
-3.91
-0.83
3.07
7.58
12.24
16.52
19.99
22.42
23.76
24.01
23.16
21.19
18.15
14.27
10.06
6.13
3.03
1.02
0.04
-0.19
-0.06
0.05
-0.09
-0.63
-1.62
-3.00
-4.69
-6.59
-8.62
-10.76
-12.96
-15.17
-17.21
-18.80
-19.56
-19.15
-17.32
-14.04
-9.50
-4.14
1.51
6.84
11.38
14.74
16.72
17.21
16.28
14.15
11.19
7.94
4.91
2.47
0.80
-0.17
-0.59
-0.61
-0.37
-0.04
0.19
0.03
-0.75
-2.25
-4.41
-7.01
-9.79
-12.55
-15.07
-17.09
-18.20
-18.01
-16.22
-12.82
-8.16
-2.83
2.48
7.18
10.90
13.48
14.99
15.55
15.36
14.50
13.09
11.19
8.93
6.52
4.22
2.22
0.62
-0.64
-1.66
-2.49
-3.14
-3.59
-3.92
-4.37
-5.28
-7.02
-9.77
-13.40
-17.41
-21.07
-23.50
-23.93
-21.97
-17.73
-11.80
-5.13
1.26
6.60
10.49
12.87
13.90
13.83
12.96
11.56
9.95
8.39
7.05
5.95
5.01
4.11
3.13
2.02
0.82
-0.42
-1.59
-2.61
-3.44
-4.20
-5.13
-6.56
-8.72
-11.61
-14.82
-17.64
-19.23
-18.87
-16.18
-11.28
-4.73
2.52
9.45
15.16
19.08
21.08
21.37
20.36
18.46
16.01
13.36
10.82
8.71
7.28
6.54
6.26
6.03
5.46
4.36
2.81
1.07
-0.58
-2.01
-3.29
-4.66
-6.41
-8.66
-11.31
-13.91
-15.85
-16.48
-15.38
-12.48
-8.08
-2.68
3.17
8.90
13.98
17.88
20.10
20.37
18.76
15.74
12.06
8.51
5.63
3.64
2.42
1.72
1.27
0.88
0.46
-0.08
-0.81
-1.80
-3.07
-4.63
-6.48
-8.57
-10.83
-13.09
-15.12
-16.57
-17.11
-16.46
-14.49
-11.25
-6.99
-2.12
2.82
7.32
10.96
13.46
14.69
14.67
13.51
11.42
8.68
5.67
2.75
0.25
-1.62
-2.78
-3.31
-3.37
-3.18
-2.95
-2.88
-3.16
-3.89
-5.16
-7.06
-9.55
-12.49
-15.47
-17.86
-18.93
-18.12
-15.29
-10.79
-5.34
0.21
5.15
9.05
11.72
13.11
13.27
12.35
10.59
8.32
5.89
3.60
1.61
-0.01
-1.21
-2.00
-2.44
-2.68
-2.87
-3.19
-3.73
-4.52
-5.60
-7.05
-8.98
-11.38
-14.03
-16.42
-17.86
-17.71
-15.60
-11.60
-6.21
-0.22
5.54
10.34
13.73
15.55
15.89
15.00
13.18
10.76
8.07
5.38
2.98
1.07
-0.25
-1.04
-1.48
-1.85
-2.38
-3.20
-4.32
-5.70
-7.25
-9.01
-11.06
-13.40
-15.86
-17.93
-18.93
-18.19
-15.35
-10.59
-4.60
1.63
7.16
11.38
14.10
15.48
15.82
15.39
14.31
12.67
10.58
8.27
6.05
4.23
2.98
2.27
1.90
1.57
1.03
0.18
-0.99
-2.38
-3.94
-5.72
-7.84
-10.36
-13.14
-15.79
-17.70
-18.19
-16.77
-13.34
-8.21
-2.09
4.16
9.77
14.19
17.17
18.70
18.98
18.24
16.74
14.68
12.30
9.85
7.57
5.69
4.29
3.31
2.58
1.92
1.22
0.44
-0.38
-1.27
-2.37
-3.88
-6.02
-8.83
-12.13
-15.45
-18.13
-19.46
-18.93
-16.31
-11.85
-6.13
0.03
5.81
10.58
13.99
15.93
16.45
15.73
14.00
11.65
9.11
6.79
4.99
3.75
2.92
2.24
1.48
0.56
-0.49
-1.50
-2.36
-3.02
-3.61
-4.37
-5.63
-7.65
-10.54
-14.05
-17.64
-20.52
-21.87
-21.06
-17.86
-12.54
-5.76
1.51
8.27
13.67
17.26
18.94
18.99
17.84
15.96
13.72
11.42
9.31
7.59
6.39
5.67
5.21
4.72
3.97
2.87
1.54
0.21
-1.04
-2.24
-3.62
-5.46
-7.90
-10.94
-14.37
-17.85
-20.92
-23.06
-23.72
-22.45
-19.12
-13.98
-7.72
-1.19
4.84
9.85
13.69
16.42
18.14
18.86
18.57
17.33
15.40
13.22
11.25
9.81
8.93
8.43
8.00
7.36
6.39
5.10
3.63
2.11
0.68
-0.57
-1.61
-2.52
-3.49
-4.83
-6.90
-9.93
-13.83
-18.10
-21.86
-24.08
-23.91
-20.94
-15.39
-8.01
0.09
7.78
14.11
18.56
21.00
21.65
20.91
19.24
17.07
14.80
12.80
11.31
10.40
10.00
9.83
9.54
8.92
7.90
6.60
5.22
3.96
2.94
2.20
1.65
1.11
0.34
-0.91
-2.79
-5.30
-8.30
-11.62
-15.09
-18.53
-21.65
-23.93
-24.68
-23.30
-19.55
-13.78
-6.86
0.13
6.25
11.00
14.31
16.39
17.49
17.77
17.25
15.96
14.04
11.78
9.55
7.69
6.41
5.69
5.38
5.31
5.34
5.39
5.37
5.09
4.30
2.75
0.42
-2.45
-5.43
-8.04
-9.96
-11.21
-12.03
-12.75
-13.62
-14.69
-15.80
-16.59
-16.60
-15.45
-12.93
-9.09
-4.30
0.88
5.88
10.20
13.55
15.77
16.83
16.70
15.42
13.15
10.24
7.21
4.61
2.86
2.15
2.34
3.11
4.01
4.67
4.78
4.19
2.90
0.98
-1.35
-3.82
-6.18
-8.23
-9.97
-11.61
-13.51
-15.96
-19.02
-22.39
-25.43
-27.35
-27.48
-25.45
-21.38
-15.68
-9.03
-2.13
4.34
9.82
13.85
16.13
16.63
15.54
13.28
10.39
7.44
4.89
3.04
1.97
1.55
1.42
1.18
0.46
-0.92
-2.89
-5.19
-7.54
-9.78
-11.88
-13.94
-16.12
-18.59
-21.42
-24.66
-28.24
-31.92
-35.27
-37.67
-38.40
-36.78
-32.39
-25.19
-15.68
-4.82
6.19
16.13
24.13
29.77
33.05
34.25
33.77
32.05
29.57
26.87
24.49
22.77
21.79
21.28
20.82
20.03
18.75
17.11
15.35
13.62
12.00
10.40
8.65
6.65
4.29
1.51
-1.73
-5.47
-9.61
-13.96
-18.13
-21.61
-23.77
-24.04
-22.06
-17.87
-11.92
-5.03
1.85
7.95
12.78
16.23
18.45
19.64
19.97
19.53
18.39
16.69
14.67
12.64
10.92
9.67
8.90
8.39
7.82
6.90
5.51
3.77
1.99
0.46
-0.65
-1.43
-2.18
-3.28
-5.00
-7.47
-10.59
-14.12
-17.60
-20.51
-22.24
-22.25
-20.25
-16.30
-10.85
-4.66
1.47
6.85
11.06
13.97
15.57
15.93
15.16
13.41
11.01
8.38
6.04
4.36
3.52
3.43
3.74
4.03
3.91
3.22
2.02
0.58
-0.73
-1.67
-2.24
-2.73
-3.53
-4.99
-7.26
-10.20
-13.47
-16.61
-19.10
-20.40
-20.08
-17.84
-13.68
-8.00
-1.49
4.96
10.59
14.82
17.36
18.17
17.41
15.42
12.70
9.85
7.42
5.76
4.96
4.85
5.12
5.40
5.35
4.79
3.61
1.94
0.03
-1.82
-3.33
-4.47
-5.39
-6.42
-7.96
-10.29
-13.47
-17.24
-20.98
-23.78
-24.75
-23.20
-19.01
-12.67
-5.21
2.17
8.53
13.34
16.43
17.86
17.74
16.23
13.67
10.67
7.98
6.26
5.72
6.11
6.77
7.02
6.40
4.85
2.68
0.36
-1.67
-3.16
-4.10
-4.71
-5.34
-6.36
-8.09
-10.57
-13.66
-16.90
-19.64
-21.13
-20.77
-18.19
-13.51
-7.30
-0.43
6.17
11.75
15.90
18.40
19.26
18.58
16.58
13.70
10.56
7.77
5.81
4.79
4.50
4.50
4.41
4.00
3.25
2.24
1.09
-0.13
-1.40
-2.71
-4.10
-5.59
-7.29
-9.31
-11.69
-14.38
-17.12
-19.39
-20.49
-19.72
-16.69
-11.50
-4.85
2.21
8.54
13.34
16.26
17.33
16.83
15.10
12.47
9.35
6.25
3.68
2.05
1.45
1.66
2.22
2.61
2.43
1.55
0.07
-1.74
-3.50
-5.00
-6.17
-7.25
-8.58
-10.44
-12.85
-15.42
-17.60
-18.73
-18.34
-16.22
-12.48
-7.44
-1.60
4.40
9.90
14.28
17.14
18.33
17.93
16.20
13.49
10.27
7.04
4.34
2.51
1.64
1.53
1.73
1.81
1.52
0.79
-0.27
-1.51
-2.89
-4.45
-6.35
-8.72
-11.60
-14.91
-18.28
-21.15
-22.83
-22.76
-20.64
-16.61
-11.15
-4.96
1.24
6.91
11.63
15.18
17.45
18.44
18.22
16.99
14.99
12.54
9.99
7.64
5.75
4.40
3.55
3.02
2.60
2.11
1.47
0.64
-0.38
-1.66
-3.28
-5.33
-7.88
-10.89
-14.21
-17.51
-20.26
-21.84
-21.69
-19.51
-15.39
-9.84
-3.59
2.60
8.18
12.83
16.40
18.81
20.00
19.99
18.94
17.13
14.94
12.72
10.70
8.97
7.53
6.30
5.20
4.19
3.25
2.42
1.71
1.09
0.44
-0.46
-1.85
-3.93
-6.77
-10.23
-13.98
-17.48
-20.09
-21.17
-20.25
-17.24
-12.45
-6.54
-0.31
5.51
10.43
14.24
16.85
18.26
18.50
17.65
15.93
13.65
11.18
8.86
6.91
5.40
4.32
3.57
3.04
2.62
2.21
1.76
1.22
0.49
-0.59
-2.20
-4.46
-7.40
-10.85
-14.47
-17.82
-20.38
-21.63
-21.15
-18.71
-14.46
-8.91
-2.85
2.93
7.77
11.40
13.78
15.04
15.32
14.73
13.39
11.50
9.29
7.01
4.87
3.00
1.44
0.19
-0.78
-1.44
-1.80
-1.90
-1.84
-1.83
-2.18
-3.28
-5.43
-8.71
-12.86
-17.28
-21.08
-23.39
-23.49
-21.06
-16.27
-9.75
-2.51
4.36
9.97
13.88
16.13
17.08
17.17
16.68
15.68
14.16
12.22
10.12
8.12
6.42
4.96
3.59
2.14
0.67
-0.65
-1.60
-2.13
-2.43
-2.83
-3.67
-5.26
-7.78
-11.25
-15.45
-19.87
-23.67
-25.91
-25.76
-22.91
-17.66
-10.81
-3.33
3.83
10.02
14.89
18.25
20.01
20.24
19.14
17.08
14.59
12.19
10.28
9.00
8.11
7.23
5.92
4.01
1.64
-0.72
-2.61
-3.73
-4.16
-4.24
-4.47
-5.29
-7.00
-9.71
-13.26
-17.20
-20.76
-22.97
-22.96
-20.26
-15.08
-8.23
-0.79
6.22
12.07
16.42
19.21
20.47
20.32
19.00
16.90
14.46
12.16
10.32
9.08
8.37
7.90
7.32
6.34
4.88
3.12
1.39
-0.01
-0.97
-1.66
-2.40
-3.57
-5.41
-8.09
-11.62
-15.76
-19.97
-23.37
-24.91
-23.70
-19.43
-12.62
-4.38
3.86
10.94
16.15
19.28
20.48
20.06
18.36
15.87
13.09
10.56
8.68
7.58
7.11
6.91
6.50
5.52
3.88
1.75
-0.45
-2.30
-3.52
-4.15
-4.52
-5.16
-6.54
-8.91
-12.24
-16.15
-20.02
-23.02
-24.34
-23.37
-19.89
-14.22
-7.13
0.39
7.34
12.99
16.88
18.83
18.89
17.33
14.61
11.42
8.47
6.30
5.15
4.88
5.08
5.22
4.91
3.99
2.54
0.82
-0.85
-2.28
-3.44
-4.50
-5.79
-7.63
-10.22
-13.49
-17.10
-20.43
-22.69
-23.12
-21.19
-16.81
-10.41
-2.88
4.68
11.26
16.21
19.31
20.67
20.62
19.50
17.61
15.26
12.75
10.41
8.47
7.05
6.06
5.29
4.48
3.39
1.95
0.22
-1.60
-3.32
-4.84
-6.28
-7.95
-10.22
-13.34
-17.17
-21.17
-24.44
-26.04
-25.21
-21.66
-15.69
-8.10
0.04
7.64
13.83
18.17
20.62
21.40
20.84
19.26
16.94
14.20
11.42
9.02
7.30
6.34
5.93
5.66
5.17
4.27
3.02
1.64
0.35
-0.77
-1.84
-3.15
-4.98
-7.55
-10.88
-14.73
-18.57
-21.67
-23.26
-22.76
-19.94
-15.01
-8.56
-1.36
5.79
12.18
17.22
20.55
21.98
21.55
19.57
16.56
13.17
10.01
7.51
5.85
4.95
4.56
4.33
4.01
3.46
2.67
1.67
0.50
-0.87
-2.50
-4.49
-6.90
-9.76
-12.97
-16.30
-19.35
-21.53
-22.22
-20.98
-17.67
-12.62
-6.43
0.11
6.30
11.64
15.76
18.41
19.44
18.82
16.72
13.60
10.09
6.84
4.35
2.80
2.09
1.89
1.85
1.69
1.29
0.63
-0.23
-1.27
-2.53
-4.12
-6.23
-9.00
-12.48
-16.46
-20.45
-23.70
-25.35
-24.73
-21.54
-16.10
-9.17
-1.74
5.22
11.04
15.44
18.34
19.77
19.79
18.45
15.98
12.81
9.52
6.70
4.68
3.48
2.82
2.31
1.63
0.68
-0.38
-1.35
-2.12
-2.76
-3.56
-4.95
-7.32
-10.85
-15.37
-20.31
-24.75
-27.67
-28.21
-25.92
-20.95
-13.99
-6.08
1.67
8.41
13.62
17.19
19.19
19.81
19.23
17.67
15.42
12.88
10.50
8.61
7.34
6.54
5.89
5.11
4.05
2.79
1.52
0.40
-0.55
-1.50
-2.72
-4.52
-7.10
-10.54
-14.69
-19.13
-23.16
-25.87
-26.42
-24.30
-19.52
-12.71
-4.88
2.85
9.62
14.94
18.62
20.70
21.31
20.58
18.75
16.19
13.39
10.81
8.78
7.36
6.37
5.46
4.33
2.84
1.04
-0.83
-2.54
-3.95
-5.13
-6.29
-7.80
-10.00
-13.17
-17.38
-22.35
-27.46
-31.76
-34.24
-34.20
-31.43
-26.40
-20.01
-13.32
-7.24
-2.30
1.30
3.50
4.28
3.68
1.79
-1.06
-4.31
-7.30
-9.41
-10.30
-9.89
-8.39
-6.11
-3.33
-0.26
2.97
6.26
9.43
12.20
14.30
15.49
15.59
14.54
12.35
9.13
5.21
1.15
-2.21
-3.93
-3.28
-0.02
5.43
12.09
18.73
24.28
28.08
29.94
30.05
28.76
26.42
23.33
19.84
16.31
13.16
10.71
9.08
8.12
7.44
6.65
5.47
3.87
2.06
0.35
-1.07
-2.23
-3.41
-5.08
-7.61
-11.18
-15.55
-20.09
-23.91
-26.04
-25.76
-22.80
-17.45
-10.42
-2.67
4.87
11.49
16.70
20.22
21.90
21.73
19.94
17.01
13.61
10.46
8.07
6.62
5.90
5.47
4.85
3.74
2.09
0.14
-1.76
-3.28
-4.29
-4.95
-5.71
-7.11
-9.60
-13.35
-18.07
-23.06
-27.34
-29.88
-29.90
-27.06
-21.57
-14.16
-5.82
2.42
9.71
15.53
19.65
22.05
22.79
22.00
19.95
17.07
13.96
11.25
9.40
8.50
8.26
8.15
7.62
6.36
4.44
2.24
0.25
-1.23
-2.22
-3.06
-4.27
-6.36
-9.60
-13.94
-19.00
-24.11
-28.37
-30.83
-30.73
-27.68
-21.88
-14.11
-5.48
2.87
10.10
15.82
19.94
22.56
23.73
23.49
21.93
19.31
16.12
12.99
10.45
8.82
8.07
7.91
7.85
7.46
6.48
4.90
2.95
0.92
-0.96
-2.62
-4.22
-6.05
-8.40
-11.50
-15.39
-19.87
-24.45
-28.38
-30.75
-30.70
-27.74
-21.96
-14.05
-5.11
3.67
11.37
17.49
21.88
24.57
25.61
25.07
23.11
20.06
16.50
13.11
10.47
8.86
8.15
7.90
7.58
6.82
5.57
4.05
2.58
1.42
0.53
-0.35
-1.61
-3.56
-6.36
-9.98
-14.28
-19.00
-23.70
-27.75
-30.28
-30.44
-27.68
-22.01
-14.11
-5.11
3.74
11.48
17.51
21.65
23.86
24.26
23.00
20.43
17.10
13.67
10.73
8.61
7.29
6.44
5.65
4.63
3.32
1.86
0.49
-0.62
-1.46
-2.25
-3.31
-4.98
-7.54
-11.08
-15.46
-20.31
-25.00
-28.69
-30.49
-29.70
-26.03
-19.79
-11.78
-3.10
5.18
12.24
17.62
21.16
22.86
22.80
21.20
18.41
14.97
11.53
8.63
6.57
5.32
4.57
3.88
2.93
1.63
0.14
-1.28
-2.45
-3.41
-4.38
-5.72
-7.76
-10.74
-14.66
-19.27
-24.01
-28.06
-30.44
-30.29
-27.14
-21.15
-13.05
-3.96
4.95
12.79
19.02
23.35
25.71
26.12
24.76
22.02
18.52
14.93
11.84
9.51
7.87
6.60
5.31
3.78
2.05
0.35
-1.04
-1.98
-2.58
-3.17
-4.25
-6.24
-9.41
-13.75
-18.92
-24.28
-28.88
-31.72
-31.91
-28.94
-22.90
-14.48
-4.76
5.03
13.83
20.90
25.84
28.53
29.06
27.73
25.02
21.53
17.93
14.71
12.15
10.23
8.74
7.40
5.96
4.34
2.62
0.97
-0.43
-1.48
-2.24
-3.02
-4.28
-6.51
-10.06
-14.89
-20.43
-25.65
-29.31
-30.28
-27.89
-22.16
-13.80
-3.98
5.94
14.78
21.73
26.39
28.75
29.01
27.52
24.75
21.25
17.65
14.52
12.26
10.90
10.15
9.50
8.47
6.79
4.59
2.24
0.15
-1.43
-2.51
-3.37
-4.45
-6.26
-9.13
-13.18
-18.10
-23.20
-27.42
-29.66
-29.01
-25.19
-18.50
-9.87
-0.49
8.52
16.25
22.15
25.90
27.37
26.59
23.84
19.71
15.03
10.72
7.41
5.35
4.30
3.74
3.17
2.33
1.24
0.06
-1.03
-2.02
-3.08
-4.41
-6.21
-8.63
-11.71
-15.41
-19.48
-23.42
-26.45
-27.69
-26.42
-22.36
-15.84
-7.69
0.96
9.06
15.81
20.74
23.65
24.51
23.43
20.68
16.78
12.43
8.38
5.20
3.12
1.96
1.36
0.92
0.40
-0.26
-1.04
-1.93
-3.06
-4.59
-6.70
-9.49
-12.95
-16.99
-21.35
-25.56
-28.91
-30.56
-29.75
-26.11
-19.84
-11.71
-2.83
5.74
13.18
19.06
23.15
25.40
25.77
24.37
21.50
17.70
13.66
10.01
7.17
5.29
4.25
3.76
3.46
3.03
2.26
1.10
-0.41
-2.13
-4.05
-6.29
-9.15
-12.88
-17.48
-22.53
-27.15
-30.24
-30.82
-28.39
-23.03
-15.44
-6.67
2.19
10.23
16.90
21.96
25.39
27.19
27.36
25.93
23.13
19.39
15.36
11.72
8.94
7.09
5.94
5.09
4.17
3.00
1.65
0.28
-0.97
-2.13
-3.38
-5.07
-7.59
-11.23
-15.93
-21.23
-26.24
-29.86
-31.04
-29.16
-24.20
-16.71
-7.70
1.71
10.54
18.07
23.87
27.72
29.53
29.35
27.37
24.02
19.95
15.91
12.59
10.40
9.32
8.93
8.64
7.93
6.54
4.59
2.44
0.46
-1.13
-2.36
-3.53
-5.05
-7.34
-10.69
-15.14
-20.38
-25.77
-30.30
-32.88
-32.55
-28.86
-22.00
-12.84
-2.65
7.25
15.76
22.22
26.38
28.29
28.17
26.37
23.29
19.46
15.43
11.78
8.99
7.30
6.63
6.62
6.73
6.42
5.39
3.64
1.44
-0.79
-2.74
-4.33
-5.79
-7.53
-9.96
-13.37
-17.69
-22.48
-26.92
-30.00
-30.79
-28.67
-23.65
-16.25
-7.49
1.51
9.72
16.43
21.27
24.09
24.90
23.83
21.12
17.24
12.86
8.72
5.45
3.37
2.40
2.15
2.14
1.95
1.41
0.55
-0.54
-1.81
-3.32
-5.22
-7.65
-10.73
-14.46
-18.74
-23.25
-27.48
-30.70
-32.10
-31.02
-27.19
-20.86
-12.77
-3.97
4.50
11.84
17.63
21.72
24.12
24.82
23.81
21.17
17.25
12.71
8.33
4.80
2.44
1.12
0.45
0.02
-0.44
-0.99
-1.62
-2.36
-3.35
-4.80
-6.91
-9.81
-13.52
-17.94
-22.76
-27.38
-30.89
-32.26
-30.70
-25.94
-18.43
-9.22
0.35
9.10
16.23
21.39
24.59
25.95
25.60
23.75
20.72
17.02
13.32
10.23
8.03
6.66
5.70
4.66
3.24
1.45
-0.45
-2.13
-3.45
-4.49
-5.60
-7.23
-9.76
-13.39
-18.05
-23.24
-28.11
-31.57
-32.53
-30.30
-24.80
-16.68
-7.07
2.74
11.66
18.93
24.17
27.28
28.34
27.60
25.49
22.56
19.38
16.42
13.90
11.83
10.04
8.29
6.39
4.25
1.95
-0.35
-2.43
-4.19
-5.62
-6.92
-8.48
-10.73
-14.04
-18.46
-23.66
-28.78
-32.61
-33.88
-31.70
-25.94
-17.27
-7.06
3.14
12.07
19.06
23.97
27.01
28.43
28.39
27.00
24.44
21.11
17.56
14.37
11.91
10.23
9.07
8.02
6.68
4.90
2.84
0.83
-0.81
-2.00
-2.96
-4.19
-6.17
-9.25
-13.41
-18.36
-23.55
-28.23
-31.51
-32.54
-30.65
-25.63
-17.89
-8.43
1.42
10.47
17.91
23.41
27.02
28.87
29.08
27.70
24.95
21.25
17.24
13.65
11.03
9.55
9.01
8.93
8.82
8.28
7.15
5.50
3.47
1.28
-0.98
-3.24
-5.53
-7.96
-10.70
-13.94
-17.85
-22.37
-27.09
-31.22
-33.71
-33.55
-30.16
-23.64
-14.81
-4.94
4.60
12.77
18.97
23.08
25.22
25.57
24.31
21.67
18.04
14.02
10.30
7.46
5.80
5.21
5.23
5.27
4.85
3.76
2.10
0.19
-1.67
-3.25
-4.59
-5.87
-7.43
-9.61
-12.65
-16.64
-21.32
-26.11
-30.11
-32.30
-31.82
-28.28
-21.92
-13.58
-4.43
4.36
11.92
17.75
21.70
23.80
24.14
22.90
20.32
16.86
13.12
9.75
7.22
5.72
5.02
4.68
4.26
3.51
2.46
1.26
0.11
-0.95
-2.08
-3.53
-5.53
-8.19
-11.55
-15.55
-19.98
-24.41
-28.13
-30.30
-30.12
-27.19
-21.63
-14.11
-5.62
2.82
10.38
16.56
21.14
24.11
25.55
25.54
24.16
21.60
18.16
14.31
10.58
7.49
5.30
3.97
3.20
2.63
1.97
1.11
0.14
-0.88
-1.97
-3.30
-5.14
-7.77
-11.30
-15.66
-20.45
-25.01
-28.45
-29.87
-28.64
-24.62
-18.23
-10.38
-2.12
5.62
12.29
17.66
21.66
24.22
25.22
24.56
22.36
19.08
15.41
12.03
9.42
7.68
6.59
5.74
4.80
3.65
2.33
1.00
-0.19
-1.23
-2.26
-3.50
-5.25
-7.75
-11.17
-15.43
-20.21
-24.82
-28.37
-29.90
-28.68
-24.53
-17.82
-9.45
-0.57
7.77
14.81
20.15
23.70
25.50
25.66
24.34
21.87
18.73
15.51
12.74
10.75
9.52
8.75
8.02
6.95
5.42
3.52
1.50
-0.35
-1.88
-3.15
-4.37
-5.86
-7.93
-10.78
-14.43
-18.64
-22.89
-26.44
-28.42
-28.08
-25.04
-19.41
-11.87
-3.45
4.73
11.74
17.04
20.52
22.39
22.87
22.16
20.37
17.62
14.24
10.72
7.65
5.43
4.17
3.59
3.25
2.78
2.00
1.01
-0.02
-0.96
-1.86
-2.88
-4.29
-6.37
-9.33
-13.25
-17.86
-22.51
-26.20
-27.81
-26.56
-22.29
-15.56
-7.45
0.81
8.27
14.33
18.73
21.50
22.73
22.61
21.38
19.38
17.04
14.70
12.62
10.86
9.34
7.91
6.46
5.00
3.60
2.35
1.26
0.19
-1.10
-2.87
-5.30
-8.52
-12.50
-17.07
-21.86
-26.19
-29.15
-29.84
-27.65
-22.54
-15.18
-6.71
1.57
8.59
13.75
16.87
18.09
17.72
16.11
13.65
10.71
7.71
4.96
2.73
1.09
0.00
-0.68
-1.15
-1.57
-2.02
-2.49
-2.92
-3.28
-3.69
-4.45
-5.92
-8.45
-12.11
-16.61
-21.30
-25.27
-27.57
-27.48
-24.69
-19.42
-12.32
-4.30
3.65
10.72
16.34
20.23
22.32
22.71
21.59
19.29
16.24
12.94
9.87
7.36
5.51
4.23
3.31
2.51
1.64
0.62
-0.52
-1.76
-3.06
-4.44
-6.01
-7.93
-10.39
-13.55
-17.34
-21.40
-24.99
-27.18
-27.17
-24.56
-19.53
-12.77
-5.26
2.16
8.87
14.59
19.17
22.47
24.29
24.46
23.02
20.24
16.70
13.06
9.91
7.61
6.24
5.63
5.45
5.35
5.04
4.33
3.16
1.56
-0.36
-2.46
-4.63
-6.86
-9.24
-11.98
-15.23
-18.87
-22.43
-25.10
-26.02
-24.56
-20.57
-14.47
-7.04
0.76
8.12
14.47
19.43
22.78
24.42
24.38
22.86
20.25
17.06
13.82
10.95
8.68
7.03
5.88
5.01
4.17
3.15
1.91
0.50
-0.92
-2.19
-3.29
-4.38
-5.73
-7.67
-10.39
-13.88
-17.86
-21.81
-25.02
-26.76
-26.36
-23.47
-18.19
-11.12
-3.18
4.59
11.35
16.58
20.09
21.87
21.97
20.50
17.68
13.95
9.92
6.29
3.57
1.94
1.26
1.08
0.97
0.60
-0.08
-0.94
-1.80
-2.54
-3.27
-4.25
-5.81
-8.15
-11.32
-15.09
-19.04
-22.55
-24.88
-25.35
-23.48
-19.17
-12.82
-5.28
2.45
9.50
15.27
19.54
22.22
23.27
22.69
20.57
17.25
13.39
9.73
6.89
5.07
4.09
3.49
2.85
1.97
0.92
-0.10
-0.98
-1.82
-2.85
-4.40
-6.68
-9.76
-13.53
-17.66
-21.71
-25.03
-26.99
-27.01
-24.80
-20.45
-14.43
-7.44
-0.23
6.56
12.45
17.14
20.43
22.22
22.54
21.57
19.53
16.77
13.64
10.54
7.79
5.64
4.17
3.27
2.69
2.16
1.49
0.66
-0.28
-1.30
-2.46
-3.92
-5.94
-8.67
-12.13
-16.09
-20.08
-23.42
-25.34
-25.19
-22.62
-17.78
-11.21
-3.78
3.64
10.31
15.77
19.79
22.29
23.28
22.84
21.17
18.59
15.56
12.60
10.14
8.39
7.32
6.66
6.03
5.15
3.94
2.55
1.25
0.21
-0.57
-1.35
-2.48
-4.32
-7.02
-10.54
-14.58
-18.67
-22.19
-24.47
-24.91
-23.09
-18.94
-12.80
-5.42
2.29
9.41
15.19
19.24
21.43
21.88
20.80
18.56
15.60
12.41
9.49
7.23
5.81
5.11
4.80
4.42
3.64
2.36
0.74
-0.89
-2.24
-3.19
-3.92
-4.78
-6.19
-8.47
-11.69
-15.60
-19.62
-22.97
-24.83
-24.52
-21.73
-16.66
-9.94
-2.47
4.80
11.13
16.01
19.21
20.64
20.34
18.50
15.49
11.87
8.26
5.22
3.07
1.82
1.25
1.03
0.84
0.51
0.01
-0.62
-1.35
-2.28
-3.57
-5.46
-8.07
-11.40
-15.20
-19.03
-22.29
-24.29
-24.42
-22.29
-17.89
-11.68
-4.54
2.48
8.53
13.14
16.29
18.19
19.07
19.02
18.02
16.06
13.40
10.37
7.36
4.68
2.47
0.70
-0.64
-1.56
-2.05
-2.13
-1.97
-1.85
-2.12
-3.16
-5.28
-8.59
-12.96
-17.93
-22.72
-26.41
-28.14
-27.33
-23.84
-18.04
-10.62
-2.55
5.20
11.88
16.98
20.33
22.00
22.22
21.30
19.56
17.30
14.83
12.42
10.25
8.36
6.70
5.11
3.49
1.86
0.36
-0.85
-1.68
-2.20
-2.66
-3.44
-4.94
-7.51
-11.25
-15.95
-21.01
-25.51
-28.39
-28.82
-26.38
-21.31
-14.30
-6.34
1.62
8.87
14.99
19.73
22.94
24.56
24.59
23.18
20.67
17.57
14.41
11.67
9.59
8.17
7.20
6.39
5.48
4.37
3.14
1.95
0.93
0.10
-0.66
-1.64
-3.14
-5.44
-8.68
-12.75
-17.26
-21.51
-24.61
-25.66
-24.01
-19.53
-12.72
-4.62
3.47
10.37
15.39
18.42
19.80
20.03
19.54
18.53
17.03
15.16
13.12
11.23
9.68
8.50
7.47
6.31
4.89
3.28
1.74
0.53
-0.23
-0.62
-0.89
-1.33
-2.28
-4.09
-7.01
-11.11
-16.12
-21.30
-25.67
-28.14
-27.91
-24.70
-18.82
-11.09
-2.71
5.11
11.43
15.75
18.08
18.83
18.49
17.48
15.99
14.11
11.94
9.70
7.62
5.88
4.53
3.45
2.52
1.67
0.89
0.18
-0.50
-1.28
-2.23
-3.38
-4.77
-6.48
-8.70
-11.63
-15.29
-19.31
-22.89
-25.01
-24.81
-21.93
-16.63
-9.71
-2.25
4.82
10.86
15.57
18.86
20.75
21.23
20.34
18.26
15.39
12.28
9.50
7.40
6.02
5.10
4.25
3.21
1.96
0.68
-0.40
-1.17
-1.75
-2.41
-3.42
-4.98
-7.14
-9.87
-13.09
-16.69
-20.43
-23.87
-26.31
-27.00
-25.37
-21.26
-15.02
-7.47
0.37
7.60
13.60
18.08
21.05
22.60
22.83
21.81
19.70
16.79
13.54
10.44
7.95
6.28
5.42
5.10
4.98
4.72
4.14
3.23
2.11
0.89
-0.38
-1.87
-3.80
-6.38
-9.70
-13.63
-17.83
-21.86
-25.17
-27.26
-27.59
-25.83
-21.86
-15.96
-8.75
-1.09
6.20
12.50
17.49
21.05
23.17
23.85
23.14
21.22
18.46
15.36
12.44
10.08
8.44
7.47
7.03
6.89
6.83
6.63
6.10
5.17
3.82
2.11
0.09
-2.15
-4.58
-7.16
-9.89
-12.79
-15.96
-19.38
-22.87
-25.91
-27.73
-27.54
-24.77
-19.45
-12.17
-3.93
4.19
11.32
16.99
21.00
23.32
23.99
23.09
20.84
17.63
14.02
10.63
8.01
6.46
5.97
6.22
6.74
7.04
6.79
5.92
4.52
2.80
0.93
-1.05
-3.16
-5.39
-7.72
-10.12
-12.65
-15.42
-18.52
-21.81
-24.74
-26.50
-26.23
-23.42
-18.14
-11.04
-3.13
4.55
11.18
16.25
19.48
20.82
20.34
18.28
15.11
11.49
8.06
5.42
3.84
3.29
3.38
3.61
3.49
2.75
1.44
-0.18
-1.76
-3.04
-4.03
-4.92
-6.05
-7.75
-10.22
-13.44
-17.19
-20.97
-24.09
-25.79
-25.42
-22.68
-17.70
-11.07
-3.62
3.79
10.45
15.88
19.76
21.90
22.20
20.68
17.64
13.64
9.43
5.79
3.28
2.08
1.99
2.50
3.02
3.08
2.44
1.13
-0.64
-2.62
-4.60
-6.47
-8.32
-10.35
-12.85
-15.98
-19.69
-23.58
-26.94
-28.92
-28.76
-26.08
-20.94
-13.90
-5.78
2.50
10.16
16.59
21.39
24.36
25.42
24.66
22.35
18.97
15.15
11.57
8.78
7.04
6.22
5.91
5.61
4.94
3.80
2.37
0.93
-0.32
-1.41
-2.62
-4.34
-6.90
-10.43
-14.74
-19.37
-23.62
-26.71
-27.95
-26.89
-23.45
-17.97
-11.06
-3.49
4.01
10.84
16.53
20.74
23.23
23.87
22.72
20.11
16.62
12.97
9.81
7.60
6.39
5.89
5.65
5.20
4.32
3.04
1.58
0.18
-1.03
-2.14
-3.36
-4.97
-7.19
-10.14
-13.82
-17.97
-22.06
-25.30
-26.84
-25.95
-22.34
-16.29
-8.60
-0.34
7.45
13.98
18.79
21.73
22.82
22.15
19.98
16.73
12.97
9.34
6.40
4.45
3.42
2.97
2.63
2.05
1.13
-0.00
-1.10
-2.02
-2.88
-3.94
-5.57
-8.04
-11.43
-15.56
-19.95
-23.91
-26.63
-27.35
-25.60
-21.35
-15.08
-7.59
0.17
7.45
13.70
18.57
21.85
23.38
23.09
21.12
17.89
14.04
10.30
7.24
5.19
4.10
3.65
3.38
2.95
2.15
0.99
-0.42
-2.01
-3.78
-5.83
-8.33
-11.38
-15.01
-19.08
-23.22
-26.83
-29.16
-29.46
-27.20
-22.30
-15.25
-6.89
1.71
9.69
16.45
21.63
25.04
26.56
26.16
24.01
20.56
16.50
12.56
9.34
7.07
5.63
4.68
3.83
2.86
1.77
0.65
-0.38
-1.33
-2.42
-3.97
-6.36
-9.83
-14.36
-19.58
-24.78
-29.02
-31.35
-31.04
-27.84
-22.04
-14.38
-5.84
2.65
10.35
16.83
21.86
25.26
26.93
26.86
25.19
22.35
18.93
15.56
12.71
10.56
9.00
7.87
6.96
6.20
5.52
4.85
4.00
2.78
1.00
-1.42
-4.48
-8.17
-12.47
-17.28
-22.24
-26.62
-29.46
-29.82
-27.13
-21.48
-13.60
-4.59
4.37
12.40
18.92
23.73
26.75
28.00
27.53
25.57
22.49
18.84
15.20
12.09
9.78
8.24
7.22
6.42
5.58
4.60
3.48
2.27
0.94
-0.60
-2.49
-4.87
-7.83
-11.43
-15.63
-20.20
-24.67
-28.29
-30.17
-29.54
-26.02
-19.81
-11.66
-2.66
6.05
13.57
19.34
23.16
25.01
25.03
23.41
20.49
16.75
12.82
9.35
6.77
5.20
4.45
4.06
3.63
2.93
1.96
0.89
-0.15
-1.18
-2.40
-4.15
-6.83
-10.68
-15.71
-21.53
-27.31
-31.89
-34.04
-32.87
-28.15
-20.48
-11.05
-1.30
7.55
14.77
20.12
23.66
25.52
25.82
24.64
22.17
18.85
15.23
11.90
9.30
7.55
6.42
5.53
4.52
3.31
2.05
1.02
0.36
-0.14
-1.01
-2.87
-6.19
-11.02
-16.99
-23.38
-29.31
-33.86
-36.16
-35.51
-31.60
-24.59
-15.22
-4.69
5.66
14.67
21.59
26.12
28.32
28.51
27.09
24.54
21.36
18.06
15.05
12.56
10.63
9.11
7.73
6.24
4.53
2.66
0.82
-0.78
-2.11
-3.34
-4.90
-7.29
-10.90
-15.84
-21.77
-27.92
-33.17
-36.27
-36.18
-32.42
-25.24
-15.59
-4.86
5.54
14.56
21.62
26.51
29.20
29.71
28.10
24.71
20.15
15.30
11.08
8.03
6.25
5.30
4.51
3.25
1.22
-1.53
-4.63
-7.60
-10.13
-12.21
-14.16
-16.53
-19.84
-24.43
-30.30
-37.00
-43.72
-49.34
-52.60
-52.43
-48.24
-40.21
-29.28
-16.92
-4.65
6.35
15.46
22.54
27.72
31.15
32.99
33.48
32.99
32.05
31.19
30.70
30.57
30.46
29.89
28.50
26.21
23.24
20.10
17.24
14.91
13.02
11.17
8.77
5.36
0.66
-5.26
-11.98
-18.73
-24.48
-28.07
-28.50
-25.24
-18.52
-9.29
0.97
10.72
18.79
24.58
28.01
29.29
28.69
26.53
23.17
19.15
15.08
11.54
8.88
7.10
5.89
4.84
3.60
2.08
0.38
-1.21
-2.47
-3.39
-4.22
-5.41
-7.45
-10.72
-15.25
-20.76
-26.61
-31.85
-35.40
-36.17
-33.43
-27.07
-17.72
-6.69
4.41
14.11
21.52
26.38
28.86
29.31
28.00
25.18
21.20
16.68
12.42
9.15
7.22
6.45
6.18
5.67
4.40
2.29
-0.29
-2.77
-4.67
-5.85
-6.57
-7.41
-9.08
-12.15
-16.83
-22.79
-29.11
-34.45
-37.36
-36.66
-31.91
-23.57
-12.85
-1.38
9.34
18.26
24.92
29.23
31.31
31.28
29.33
25.87
21.58
17.29
13.75
11.36
10.01
9.22
8.42
7.17
5.40
3.34
1.34
-0.27
-1.36
-2.14
-3.07
-4.76
-7.71
-12.21
-18.09
-24.74
-31.11
-35.90
-37.85
-36.06
-30.31
-21.18
-9.95
1.72
12.33
20.87
26.96
30.74
32.50
32.52
30.96
28.04
24.24
20.23
16.75
14.31
12.96
12.32
11.76
10.71
8.88
6.36
3.47
0.71
-1.52
-3.10
-4.15
-5.09
-6.51
-8.98
-12.87
-18.20
-24.51
-30.91
-36.17
-38.91
-38.04
-33.06
-24.30
-12.92
-0.63
10.85
20.21
26.82
30.64
32.00
31.29
28.90
25.21
20.79
16.34
12.61
10.15
9.05
8.94
9.10
8.79
7.59
5.51
3.02
0.75
-0.88
-1.84
-2.54
-3.62
-5.68
-8.98
-13.49
-18.84
-24.50
-29.80
-33.90
-35.88
-34.87
-30.42
-22.72
-12.69
-1.76
8.54
17.01
22.98
26.32
27.24
26.14
23.50
19.83
15.73
11.78
8.45
6.00
4.39
3.41
2.71
1.96
0.98
-0.20
-1.44
-2.55
-3.50
-4.45
-5.74
-7.79
-10.95
-15.35
-20.84
-26.86
-32.45
-36.36
-37.36
-34.61
-28.05
-18.49
-7.42
3.46
12.81
19.92
24.65
27.18
27.70
26.40
23.52
19.53
15.14
11.18
8.21
6.36
5.31
4.45
3.25
1.49
-0.68
-2.82
-4.50
-5.53
-6.11
-6.74
-8.07
-10.61
-14.57
-19.78
-25.72
-31.53
-36.15
-38.39
-37.28
-32.37
-24.02
-13.36
-1.99
8.50
17.00
23.08
26.81
28.51
28.44
26.82
23.91
20.15
16.16
12.55
9.70
7.62
6.06
4.65
3.10
1.36
-0.46
-2.13
-3.52
-4.61
-5.65
-6.99
-9.13
-12.44
-17.07
-22.80
-28.92
-34.30
-37.61
-37.63
-33.66
-25.83
-15.18
-3.30
8.05
17.55
24.52
28.91
31.02
31.15
29.54
26.47
22.40
18.09
14.40
11.91
10.69
10.25
9.81
8.71
6.73
4.12
1.42
-0.89
-2.60
-3.90
-5.23
-7.17
-10.17
-14.46
-19.91
-25.94
-31.58
-35.59
-36.76
-34.29
-28.05
-18.73
-7.64
3.67
13.79
21.82
27.34
30.36
31.07
29.77
26.81
22.75
18.28
14.16
10.95
8.84
7.56
6.62
5.49
3.92
1.99
-0.01
-1.74
-3.03
-3.93
-4.71
-5.78
-7.59
-10.54
-14.85
-20.38
-26.50
-32.06
-35.59
-35.78
-31.88
-24.11
-13.57
-2.00
8.92
17.90
24.28
27.99
29.22
28.23
25.39
21.17
16.30
11.64
7.96
5.63
4.51
4.02
3.47
2.42
0.77
-1.22
-3.18
-4.86
-6.23
-7.47
-8.92
-10.99
-14.04
-18.27
-23.49
-29.01
-33.63
-35.96
-34.83
-29.80
-21.30
-10.54
0.91
11.59
20.47
26.99
30.92
32.22
30.99
27.53
22.50
16.84
11.57
7.52
5.03
3.86
3.44
3.06
2.26
0.98
-0.58
-2.13
-3.50
-4.79
-6.27
-8.28
-11.14
-15.06
-20.05
-25.81
-31.54
-36.04
-37.91
-36.04
-30.09
-20.74
-9.48
1.91
11.93
19.84
25.55
29.32
31.38
31.73
30.25
27.01
22.49
17.52
13.09
9.85
8.00
7.14
6.66
5.95
4.73
3.06
1.20
-0.62
-2.35
-4.14
-6.29
-9.08
-12.74
-17.36
-22.80
-28.57
-33.73
-37.05
-37.30
-33.72
-26.37
-16.15
-4.55
6.89
17.02
25.23
31.34
35.34
37.19
36.83
34.34
30.15
25.04
19.97
15.84
13.11
11.77
11.28
10.92
10.03
8.31
5.87
3.16
0.65
-1.39
-3.04
-4.62
-6.54
-9.14
-12.62
-17.02
-22.20
-27.71
-32.76
-36.19
-36.81
-33.74
-26.82
-16.72
-4.80
7.31
18.12
26.63
32.39
35.40
35.97
34.50
31.48
27.42
22.85
18.36
14.51
11.75
10.26
9.89
10.21
10.58
10.42
9.36
7.36
4.66
1.67
-1.17
-3.60
-5.62
-7.45
-9.49
-12.20
-15.92
-20.72
-26.32
-32.03
-36.81
-39.43
-38.77
-34.21
-25.87
-14.72
-2.37
9.38
19.09
25.96
29.90
31.23
30.45
28.00
24.38
20.17
16.04
12.61
10.25
8.93
8.26
7.73
6.96
5.84
4.47
2.99
1.49
-0.06
-1.71
-3.45
-5.29
-7.27
-9.56
-12.48
-16.33
-21.20
-26.75
-32.16
-36.19
-37.55
-35.33
-29.35
-20.23
-9.29
1.91
11.99
20.05
25.75
29.16
30.54
30.21
28.47
25.64
22.12
18.35
14.74
11.65
9.31
7.73
6.71
5.94
5.07
3.90
2.45
0.91
-0.53
-1.78
-2.97
-4.39
-6.32
-9.00
-12.51
-16.84
-21.90
-27.38
-32.63
-36.63
-38.24
-36.51
-31.12
-22.56
-12.00
-0.94
9.26
17.65
23.87
28.02
30.42
31.39
31.13
29.72
27.17
23.66
19.60
15.56
12.14
9.71
8.30
7.63
7.23
6.74
6.00
5.05
4.00
2.90
1.62
-0.07
-2.42
-5.54
-9.45
-14.00
-18.98
-24.09
-28.88
-32.69
-34.71
-34.17
-30.63
-24.18
-15.53
-5.84
3.61
11.84
18.32
22.93
25.80
27.06
26.79
25.09
22.24
18.69
15.05
11.86
9.48
7.96
7.09
6.53
5.94
5.11
4.01
2.77
1.62
0.72
0.12
-0.37
-1.11
-2.46
-4.72
-8.05
-12.40
-17.54
-23.06
-28.28
-32.29
-34.07
-32.78
-28.13
-20.53
-11.06
-1.13
7.91
15.15
20.20
23.16
24.30
23.97
22.43
19.95
16.87
13.57
10.50
8.04
6.34
5.37
4.85
4.45
3.87
2.94
1.69
0.25
-1.20
-2.52
-3.69
-4.80
-6.07
-7.77
-10.16
-13.39
-17.34
-21.62
-25.54
-28.24
-28.92
-27.05
-22.61
-16.02
-8.13
0.13
7.82
14.27
19.03
21.87
22.76
21.83
19.37
15.85
11.86
8.03
4.87
2.64
1.31
0.57
0.06
-0.53
-1.28
-2.14
-2.96
-3.68
-4.33
-5.13
-6.33
-8.14
-10.72
-14.08
-18.03
-22.15
-25.78
-28.08
-28.29
-25.93
-21.07
-14.30
-6.57
1.16
8.09
13.76
17.94
20.51
21.42
20.70
18.56
15.43
11.89
8.52
5.73
3.70
2.35
1.43
0.66
-0.16
-1.12
-2.17
-3.19
-4.09
-4.90
-5.83
-7.15
-9.16
-12.02
-15.65
-19.72
-23.61
-26.55
-27.71
-26.46
-22.60
-16.52
-9.08
-1.36
5.74
11.67
16.27
19.59
21.60
22.21
21.35
19.14
16.04
12.67
9.63
7.25
5.54
4.25
3.13
2.02
0.93
-0.04
-0.79
-1.34
-1.81
-2.49
-3.77
-5.99
-9.32
-13.63
-18.42
-22.85
-26.02
-27.09
-25.54
-21.33
-14.86
-7.03
1.09
8.45
14.34
18.45
20.91
22.02
22.03
21.07
19.21
16.59
13.54
10.48
7.76
5.53
3.74
2.22
0.90
-0.18
-0.88
-1.17
-1.18
-1.25
-1.76
-3.11
-5.52
-9.00
-13.33
-17.99
-22.17
-24.95
-25.52
-23.45
-18.85
-12.32
-4.82
2.62
9.16
14.24
17.69
19.53
19.99
19.30
17.71
15.49
12.91
10.29
7.91
5.95
4.37
2.99
1.63
0.18
-1.25
-2.43
-3.17
-3.45
-3.50
-3.72
-4.54
-6.34
-9.29
-13.31
-18.00
-22.61
-26.11
-27.45
-25.94
-21.45
-14.60
-6.50
1.56
8.49
13.58
16.57
17.55
16.80
14.78
12.02
9.08
6.45
4.42
3.03
2.16
1.47
0.67
-0.43
-1.84
-3.34
-4.64
-5.49
-5.87
-5.98
-6.25
-7.14
-8.99
-11.91
-15.71
-19.90
-23.71
-26.21
-26.51
-24.02
-18.69
-11.12
-2.42
6.07
13.20
18.22
20.87
21.31
19.93
17.30
14.03
10.70
7.84
5.77
4.52
3.88
3.48
2.91
1.95
0.55
-1.09
-2.70
-4.05
-5.10
-6.02
-7.18
-8.97
-11.65
-15.19
-19.20
-22.97
-25.61
-26.29
-24.49
-20.14
-13.70
-6.02
1.96
9.36
15.59
20.29
23.29
24.50
23.90
21.68
18.29
14.41
10.77
7.96
6.21
5.36
5.04
4.79
4.28
3.36
2.05
0.55
-0.99
-2.42
-3.78
-5.25
-7.14
-9.76
-13.22
-17.29
-21.38
-24.65
-26.19
-25.35
-21.89
-16.05
-8.52
-0.26
7.76
14.74
20.17
23.89
25.92
26.40
25.49
23.38
20.39
16.96
13.65
10.95
9.17
8.29
8.03
7.93
7.55
6.66
5.25
3.52
1.69
0.01
-1.48
-2.82
-4.17
-5.75
-7.72
-10.24
-13.37
-17.06
-20.99
-24.54
-26.81
-26.88
-24.12
-18.53
-10.75
-1.95
6.61
13.93
19.39
22.82
24.39
24.38
23.20
21.25
18.98
16.72
14.72
13.06
11.74
10.69
9.81
9.01
8.21
7.32
6.33
5.30
4.32
3.41
2.51
1.48
0.16
-1.54
-3.62
-6.06
-8.78
-11.75
-14.98
-18.41
-21.88
-25.04
-27.31
-28.01
-26.52
-22.54
-16.37
-8.83
-1.05
5.85
11.22
14.89
17.14
18.32
18.65
18.16
16.82
14.73
12.20
9.68
7.62
6.26
5.64
5.58
5.80
6.04
6.12
5.91
5.39
4.55
3.31
1.58
-0.64
-3.27
-6.07
-8.74
-11.04
-12.99
-14.81
-16.83
-19.20
-21.70
-23.80
-24.75
-23.86
-20.77
-15.58
-8.77
-1.15
6.36
12.91
17.90
21.05
22.37
22.04
20.35
17.65
14.36
10.97
8.00
5.88
4.83
4.78
5.45
6.43
7.33
7.74
7.37
6.07
3.89
1.11
-1.81
-4.37
-6.32
-7.65
-8.67
-9.75
-11.24
-13.45
-16.44
-20.11
-23.98
-27.29
-28.99
-28.16
-24.34
-17.75
-9.33
-0.36
7.91
14.53
18.98
21.24
21.59
20.51
18.63
16.55
14.74
13.46
12.71
12.32
12.05
11.63
10.90
9.82
8.51
7.17
6.01
5.15
4.50
3.86
3.01
1.81
0.33
-1.41
-3.39
-5.67
-8.34
-11.43
-14.82
-18.28
-21.58
-24.43
-26.50
-27.34
-26.43
-23.44
-18.39
-11.75
-4.33
2.93
9.29
14.35
18.03
20.42
21.69
21.97
21.38
20.00
17.99
15.59
13.15
11.04
9.56
8.77
8.53
8.53
8.48
8.24
7.83
7.25
6.43
5.22
3.52
1.38
-0.95
-3.12
-4.89
-6.24
-7.39
-8.66
-10.32
-12.54
-15.36
-18.72
-22.32
-25.58
-27.65
-27.66
-25.02
-19.75
-12.55
-4.54
3.09
9.44
14.04
16.82
18.01
17.92
16.94
15.44
13.73
12.09
10.69
9.57
8.71
8.03
7.38
6.66
5.84
4.93
4.07
3.35
2.83
2.43
1.94
1.14
-0.15
-1.99
-4.30
-6.90
-9.53
-12.00
-14.16
-15.98
-17.61
-19.18
-20.70
-21.91
-22.28
-21.21
-18.33
-13.71
-7.94
-1.86
3.70
8.22
11.51
13.66
14.79
14.98
14.24
12.57
10.13
7.31
4.61
2.57
1.53
1.54
2.30
3.30
4.01
4.05
3.33
1.96
0.16
-1.83
-3.86
-5.82
-7.65
-9.30
-10.84
-12.46
-14.38
-16.72
-19.38
-21.92
-23.67
-23.93
-22.23
-18.42
-12.83
-6.13
0.86
7.32
12.63
16.42
18.60
19.30
18.72
17.12
14.79
12.04
9.29
6.99
5.50
4.95
5.16
5.72
6.11
5.91
4.96
3.37
1.45
-0.47
-2.14
-3.52
-4.76
-6.13
-7.91
-10.32
-13.39
-16.95
-20.64
-23.94
-26.22
-26.88
-25.44
-21.71
-15.89
-8.60
-0.74
6.72
13.00
17.58
20.26
21.14
20.45
18.57
15.94
13.08
10.48
8.53
7.42
7.08
7.23
7.44
7.31
6.57
5.14
3.17
0.93
-1.25
-3.18
-4.79
-6.23
-7.72
-9.53
-11.84
-14.73
-18.07
-21.46
-24.28
-25.75
-25.17
-22.17
-16.91
-10.03
-2.54
4.58
10.59
15.11
18.05
19.54
19.75
18.91
17.28
15.24
13.14
11.30
9.85
8.78
7.94
7.15
6.24
5.15
3.89
2.56
1.28
0.11
-0.93
-1.95
-3.14
-4.70
-6.86
-9.69
-13.15
-16.96
-20.66
-23.58
-25.01
-24.36
-21.33
-16.12
-9.34
-1.91
5.22
11.26
15.77
18.66
20.05
20.24
19.49
18.10
16.30
14.35
12.46
10.80
9.43
8.34
7.38
6.40
5.27
3.96
2.54
1.16
-0.03
-1.06
-2.05
-3.26
-4.95
-7.28
-10.24
-13.67
-17.26
-20.57
-23.04
-24.09
-23.21
-20.21
-15.24
-8.89
-1.98
4.61
10.22
14.46
17.17
18.35
18.12
16.70
14.44
11.80
9.28
7.25
5.85
4.98
4.40
3.86
3.21
2.46
1.69
0.95
0.21
-0.63
-1.72
-3.19
-5.11
-7.57
-10.58
-14.08
-17.85
-21.39
-24.01
-24.92
-23.55
-19.74
-13.86
-6.77
0.47
6.93
11.97
15.38
17.22
17.71
17.03
15.39
13.04
10.34
7.74
5.62
4.18
3.31
2.69
1.96
0.92
-0.36
-1.67
-2.78
-3.67
-4.50
-5.54
-7.07
-9.31
-12.32
-16.05
-20.17
-24.09
-26.92
-27.73
-25.83
-21.12
-14.15
-6.02
2.06
9.11
14.59
18.35
20.43
20.96
20.09
18.10
15.43
12.66
10.33
8.74
7.87
7.38
6.79
5.75
4.17
2.23
0.35
-1.11
-2.01
-2.54
-3.13
-4.29
-6.42
-9.68
-13.92
-18.72
-23.44
-27.26
-29.29
-28.77
-25.28
-19.01
-10.71
-1.60
7.06
14.25
19.47
22.69
24.17
24.23
23.16
21.19
18.60
15.79
13.19
11.17
9.89
9.19
8.66
7.89
6.57
4.69
2.55
0.56
-0.94
-1.87
-2.45
-3.12
-4.40
-6.72
-10.27
-14.95
-20.27
-25.44
-29.39
-31.10
-29.76
-25.15
-17.72
-8.55
1.02
9.70
16.62
21.46
24.38
25.72
25.85
25.04
23.47
21.33
18.87
16.43
14.34
12.85
11.98
11.57
11.32
10.90
10.09
8.79
7.07
5.07
2.97
0.90
-1.14
-3.22
-5.47
-8.02
-10.97
-14.37
-18.19
-22.31
-26.35
-29.72
-31.60
-31.17
-27.91
-21.83
-13.57
-4.28
4.78
12.59
18.59
22.67
25.02
25.85
25.32
23.58
20.87
17.59
14.29
11.45
9.46
8.42
8.20
8.54
9.09
9.47
9.38
8.59
7.04
4.85
2.26
-0.43
-2.96
-5.21
-7.19
-9.00
-10.84
-12.92
-15.51
-18.75
-22.57
-26.57
-29.93
-31.63
-30.69
-26.63
-19.61
-10.53
-0.68
8.54
16.07
21.35
24.26
25.01
23.97
21.57
18.29
14.66
11.23
8.50
6.74
5.98
6.00
6.40
6.75
6.70
6.01
4.67
2.82
0.74
-1.24
-2.90
-4.18
-5.29
-6.59
-8.51
-11.35
-15.17
-19.68
-24.28
-28.09
-30.21
-29.85
-26.57
-20.47
-12.19
-2.78
6.51
14.56
20.57
24.27
25.75
25.43
23.78
21.29
18.35
15.32
12.58
10.43
9.09
8.53
8.49
8.50
8.10
7.02
5.30
3.25
1.26
-0.36
-1.60
-2.71
-4.04
-5.95
-8.66
-12.25
-16.61
-21.51
-26.49
-30.82
-33.59
-33.90
-31.11
-25.16
-16.68
-6.84
2.93
11.39
17.81
22.01
24.31
25.18
25.05
24.12
22.48
20.17
17.37
14.43
11.77
9.69
8.25
7.27
6.46
5.55
4.43
3.15
1.84
0.59
-0.57
-1.74
-3.12
-4.92
-7.33
-10.49
-14.38
-18.77
-23.16
-26.83
-28.98
-28.93
-26.29
-21.16
-14.07
-5.87
2.45
10.03
16.28
20.94
23.98
25.47
25.55
24.34
22.06
19.05
15.78
12.72
10.27
8.56
7.48
6.79
6.27
5.77
5.24
4.67
3.98
3.08
1.89
0.34
-1.55
-3.81
-6.51
-9.74
-13.58
-17.87
-22.23
-25.94
-28.18
-28.20
-25.59
-20.44
-13.34
-5.24
2.87
10.14
16.10
20.55
23.46
24.81
24.57
22.78
19.72
15.91
12.07
8.91
6.86
5.98
5.96
6.30
6.44
6.03
4.95
3.30
1.39
-0.48
-2.11
-3.53
-4.97
-6.72
-9.06
-12.09
-15.68
-19.49
-22.98
-25.51
-26.46
-25.33
-21.89
-16.31
-9.17
-1.31
6.30
12.84
17.73
20.70
21.75
21.08
18.99
15.87
12.19
8.48
5.26
2.94
1.68
1.34
1.52
1.75
1.63
1.02
0.03
-1.11
-2.21
-3.24
-4.35
-5.84
-8.00
-11.04
-14.92
-19.30
-23.50
-26.62
-27.77
-26.33
-22.17
-15.73
-7.88
0.35
7.98
14.34
19.00
21.81
22.75
21.95
19.66
16.29
12.38
8.54
5.32
3.09
1.96
1.71
1.86
1.91
1.48
0.46
-0.97
-2.53
-4.00
-5.40
-6.92
-8.86
-11.45
-14.69
-18.37
-22.00
-24.89
-26.29
-25.55
-22.31
-16.73
-9.44
-1.43
6.33
13.07
18.39
22.09
24.10
24.35
22.84
19.77
15.73
11.52
7.99
5.67
4.61
4.43
4.47
4.17
3.21
1.62
-0.29
-2.19
-3.88
-5.35
-6.82
-8.61
-10.98
-14.04
-17.65
-21.42
-24.72
-26.77
-26.85
-24.46
-19.54
-12.54
-4.34
3.96
11.39
17.24
21.18
23.17
23.35
21.97
19.38
16.07
12.58
9.47
7.10
5.59
4.78
4.34
3.92
3.30
2.42
1.37
0.28
-0.80
-1.99
-3.56
-5.82
-9.00
-13.10
-17.80
-22.47
-26.22
-28.14
-27.46
-23.86
-17.59
-9.45
-0.60
7.76
14.68
19.72
22.79
24.11
23.93
22.48
20.02
16.85
13.47
10.33
7.84
6.09
4.98
4.25
3.68
3.21
2.81
2.48
2.10
1.45
0.22
-1.76
-4.54
-8.05
-12.13
-16.57
-20.99
-24.85
-27.36
-27.69
-25.25
-20.02
-12.58
-4.03
4.41
11.77
17.48
21.45
23.78
24.57
23.85
21.66
18.23
14.11
10.05
6.77
4.68
3.73
3.47
3.34
2.96
2.24
1.28
0.26
-0.81
-2.09
-3.83
-6.24
-9.40
-13.18
-17.30
-21.26
-24.45
-26.17
-25.82
-23.08
-18.06
-11.31
-3.66
3.91
10.59
15.74
19.06
20.47
20.18
18.53
15.97
12.94
9.84
6.98
4.59
2.77
1.51
0.66
0.03
-0.50
-1.00
-1.47
-1.97
-2.68
-3.86
-5.80
-8.65
-12.33
-16.52
-20.64
-24.00
-25.82
-25.41
-22.36
-16.75
-9.19
-0.75
7.34
14.06
18.78
21.32
21.84
20.70
18.36
15.35
12.18
9.29
6.95
5.17
3.82
2.67
1.57
0.45
-0.70
-1.85
-3.02
-4.25
-5.59
-7.15
-9.06
-11.53
-14.78
-18.79
-23.09
-26.77
-28.62
-27.59
-23.19
-15.83
-6.66
2.80
11.14
17.48
21.56
23.56
23.83
22.70
20.48
17.51
14.23
11.15
8.69
7.00
5.93
5.09
4.12
2.79
1.15
-0.55
-2.04
-3.24
-4.24
-5.40
-7.12
-9.73
-13.33
-17.68
-22.17
-25.85
-27.71
-26.91
-23.14
-16.74
-8.62
0.07
8.24
15.16
20.46
24.07
26.00
26.31
25.08
22.59
19.28
15.78
12.66
10.31
8.79
7.89
7.21
6.39
5.25
3.81
2.26
0.76
-0.64
-2.06
-3.71
-5.82
-8.53
-11.90
-15.83
-20.00
-23.84
-26.53
-27.23
-25.33
-20.74
-13.97
-5.95
2.27
9.84
16.21
21.12
24.43
26.01
25.81
23.96
20.86
17.18
13.69
11.01
9.48
9.01
9.21
9.50
9.34
8.39
6.69
4.54
2.36
0.52
-0.90
-2.08
-3.41
-5.32
-8.07
-11.70
-16.02
-20.56
-24.67
-27.56
-28.44
-26.72
-22.27
-15.49
-7.28
1.24
9.03
15.37
19.91
22.57
23.45
22.71
20.58
17.45
13.86
10.42
7.67
5.88
5.03
4.79
4.71
4.39
3.64
2.48
1.11
-0.24
-1.45
-2.55
-3.74
-5.29
-7.49
-10.49
-14.28
-18.62
-23.00
-26.70
-28.86
-28.71
-25.80
-20.24
-12.72
-4.31
3.81
10.77
16.08
19.69
21.71
22.27
21.44
19.33
16.24
12.67
9.28
6.62
4.96
4.20
3.95
3.74
3.27
2.45
1.40
0.30
-0.69
-1.59
-2.56
-3.84
-5.75
-8.52
-12.24
-16.77
-21.64
-26.12
-29.27
-30.16
-28.15
-23.11
-15.51
-6.36
3.03
11.43
17.93
22.08
23.91
23.79
22.20
19.70
16.74
13.79
11.19
9.19
7.87
7.07
6.50
5.84
4.85
3.44
1.71
-0.16
-1.95
-3.50
-4.77
-5.88
-7.15
-8.97
-11.73
-15.57
-20.23
-25.05
-28.96
-30.87
-29.93
-25.81
-18.85
-9.94
-0.34
8.74
16.29
21.75
24.96
26.07
25.36
23.19
20.00
16.34
12.83
10.03
8.28
7.56
7.47
7.44
6.95
5.70
3.77
1.48
-0.76
-2.58
-3.81
-4.58
-5.27
-6.42
-8.55
-11.96
-16.52
-21.60
-26.19
-29.14
-29.52
-26.88
-21.41
-13.80
-5.12
3.57
11.36
17.67
22.22
24.93
25.83
25.03
22.78
19.52
15.84
12.41
9.76
8.08
7.24
6.82
6.37
5.51
4.16
2.44
0.62
-1.03
-2.36
-3.45
-4.52
-5.91
-7.94
-10.85
-14.64
-19.03
-23.37
-26.85
-28.54
-27.80
-24.39
-18.65
-11.31
-3.32
4.42
11.27
16.80
20.72
22.82
23.02
21.42
18.44
14.76
11.17
8.28
6.37
5.35
4.88
4.55
4.03
3.19
2.07
0.81
-0.38
-1.38
-2.23
-3.15
-4.49
-6.65
-9.88
-14.14
-19.03
-23.79
-27.51
-29.27
-28.40
-24.68
-18.40
-10.37
-1.72
6.39
13.04
17.70
20.26
20.93
20.05
18.01
15.24
12.19
9.28
6.87
5.10
3.88
2.96
2.08
1.09
-0.01
-1.09
-2.05
-2.83
-3.54
-4.42
-5.75
-7.80
-10.76
-14.61
-19.03
-23.44
-26.99
-28.76
-28.07
-24.62
-18.68
-10.98
-2.55
5.54
12.42
17.55
20.69
21.87
21.31
19.38
16.54
13.38
10.46
8.22
6.79
6.06
5.63
5.08
4.10
2.62
0.83
-0.97
-2.52
-3.72
-4.72
-5.88
-7.70
-10.54
-14.54
-19.37
-24.21
-27.99
-29.61
-28.36
-24.15
-17.50
-9.38
-0.83
7.23
14.19
19.62
23.25
24.87
24.45
22.23
18.75
14.81
11.18
8.38
6.54
5.43
4.68
3.96
3.12
2.18
1.19
0.16
-1.04
-2.53
-4.47
-6.93
-9.95
-13.56
-17.64
-21.89
-25.64
-28.02
-28.11
-25.33
-19.72
-11.93
-3.07
5.68
13.35
19.34
23.41
25.55
25.85
24.51
21.89
18.52
15.02
11.96
9.67
8.17
7.19
6.35
5.35
4.11
2.72
1.37
0.19
-0.86
-2.01
-3.59
-5.96
-9.34
-13.73
-18.81
-23.87
-27.92
-29.90
-29.00
-24.98
-18.27
-9.86
-0.94
7.46
14.69
20.47
24.66
27.15
27.79
26.53
23.63
19.72
15.63
12.19
9.87
8.67
8.14
7.70
6.86
5.44
3.60
1.71
0.09
-1.15
-2.17
-3.31
-5.00
-7.52
-10.98
-15.22
-19.83
-24.15
-27.34
-28.56
-27.18
-22.98
-16.30
-8.00
0.81
9.03
15.88
20.89
23.90
24.88
23.92
21.25
17.36
13.01
9.05
6.17
4.61
4.14
4.14
3.99
3.27
1.95
0.29
-1.32
-2.69
-3.83
-4.99
-6.53
-8.80
-11.96
-15.95
-20.36
-24.50
-27.42
-28.22
-26.28
-21.51
-14.44
-6.06
2.48
10.17
16.40
20.90
23.61
24.53
23.67
21.19
17.51
13.34
9.49
6.64
4.99
4.31
4.03
3.60
2.77
1.61
0.42
-0.59
-1.47
-2.49
-4.03
-6.35
-9.54
-13.55
-18.22
-23.22
-27.96
-31.54
-32.88
-31.09
-25.88
-17.75
-7.92
2.15
11.18
18.36
23.33
26.03
26.57
25.15
22.19
18.38
14.57
11.51
9.62
8.88
8.88
9.04
8.76
7.67
5.73
3.20
0.52
-1.85
-3.71
-5.18
-6.64
-8.63
-11.56
-15.51
-20.22
-25.05
-29.13
-31.49
-31.30
-28.06
-21.84
-13.32
-3.68
5.80
14.06
20.51
24.96
27.45
28.08
26.98
24.35
20.66
16.62
13.04
10.53
9.32
9.12
9.31
9.21
8.38
6.74
4.57
2.31
0.31
-1.31
-2.72
-4.24
-6.25
-9.06
-12.77
-17.32
-22.32
-27.08
-30.60
-31.83
-29.92
-24.64
-16.53
-6.75
3.24
12.14
19.11
23.88
26.55
27.41
26.72
24.73
21.76
18.25
14.77
11.91
10.05
9.24
9.19
9.37
9.26
8.54
7.21
5.50
3.72
2.07
0.54
-1.03
-2.86
-5.12
-7.93
-11.41
-15.65
-20.53
-25.62
-30.04
-32.63
-32.34
-28.63
-21.73
-12.63
-2.72
6.66
14.57
20.61
24.72
26.99
27.49
26.27
23.50
19.62
15.32
11.44
8.64
7.21
6.94
7.26
7.49
7.17
6.15
4.63
2.95
1.36
-0.07
-1.44
-2.96
-4.85
-7.26
-10.33
-14.12
-18.57
-23.39
-27.95
-31.37
-32.71
-31.25
-26.75
-19.59
-10.64
-1.07
7.94
15.45
20.91
24.11
25.16
24.28
21.83
18.30
14.28
10.46
7.45
5.58
4.81
4.78
4.97
4.92
4.39
3.40
2.07
0.56
-1.08
-2.86
-4.83
-7.13
-9.87
-13.22
-17.27
-21.87
-26.55
-30.47
-32.63
-32.13
-28.51
-22.01
-13.43
-4.02
4.97
12.58
18.31
22.09
24.05
24.38
23.25
20.87
17.58
13.89
10.37
7.43
5.23
3.66
2.42
1.19
-0.21
-1.86
-3.74
-5.82
-8.07
-10.45
-12.93
-15.49
-18.21
-21.31
-25.13
-29.86
-35.42
-41.18
-46.07
-48.82
-48.42
-44.58
-37.84
-29.49
-21.10
-13.94
-8.71
-5.48
-3.95
-3.75
-4.75
-6.97
-10.50
-15.15
-20.47
-25.75
-30.15
-32.92
-33.47
-31.33
-26.21
-17.97
-6.71
7.19
22.96
39.55
55.76
70.35
82.26
90.60
94.76
94.38
89.48
80.52
68.57
55.22
42.40
31.95
25.13
22.20
22.47
24.56
27.06
28.96
29.90
29.97
29.33
27.94
25.51
21.75
16.72
10.92
5.15
0.26
-3.20
-5.18
-5.99
-6.24
-6.53
-7.29
-8.63
-10.35
-12.08
-13.57
-14.83
-16.18
-18.04
-20.71
-24.23
-28.36
-32.68
-36.75
-40.07
-42.00
-41.80
-38.86
-32.98
-24.57
-14.62
-4.43
4.88
12.58
18.41
22.36
24.50
24.84
23.44
20.50
16.49
12.10
8.13
5.21
3.67
3.36
3.81
4.35
4.39
3.62
2.09
0.07
-2.10
-4.21
-6.18
-8.13
-10.16
-12.40
-14.96
-18.01
-21.66
-25.83
-30.10
-33.68
-35.53
-34.70
-30.70
-23.68
-14.51
-4.44
5.17
13.27
19.22
22.77
24.00
23.12
20.48
16.55
11.99
7.55
3.94
1.58
0.50
0.28
0.32
0.05
-0.80
-2.20
-3.86
-5.47
-6.83
-7.93
-8.91
-9.99
-11.35
-13.16
-15.48
-18.29
-21.32
-24.06
-25.82
-25.82
-23.53
-18.81
-12.03
-3.97
4.48
12.53
19.69
25.79
30.86
34.86
37.73
39.27
39.43
38.29
36.30
34.07
32.24
31.20
31.00
31.30
31.55
31.18
29.88
27.67
24.87
21.88
19.02
16.27
13.29
9.55
4.51
-2.20
-10.59
-20.31
-30.56
-40.13
-47.55
-51.46
-50.93
-45.94
-37.38
-26.88
-16.27
-7.06
-0.12
4.22
6.02
5.54
3.16
-0.58
-4.84
-8.67
-11.24
-12.15
-11.52
-10.00
-8.41
-7.49
-7.63
-8.77
-10.47
-12.21
-13.53
-14.35
-14.93
-15.72
-17.27
-19.92
-23.73
-28.45
-33.50
-37.99
-40.82
-40.91
-37.51
-30.52
-20.62
-9.13
2.43
12.70
20.90
26.77
30.43
32.09
31.93
30.08
26.84
22.65
18.21
14.22
11.24
9.44
8.60
8.21
7.70
6.65
4.97
2.89
0.79
-1.02
-2.41
-3.56
-4.85
-6.73
-9.54
-13.42
-18.26
-23.59
-28.67
-32.51
-34.08
-32.59
-27.73
-19.84
-9.90
0.81
10.98
19.61
26.12
30.28
32.12
31.81
29.68
26.18
21.91
17.57
13.76
10.86
8.98
7.98
7.50
7.17
6.66
5.74
4.37
2.60
0.61
-1.45
-3.52
-5.64
-7.96
-10.72
-14.12
-18.26
-23.02
-27.91
-32.14
-34.70
-34.66
-31.45
-25.14
-16.39
-6.33
3.80
12.92
20.25
25.35
28.04
28.35
26.48
22.88
18.22
13.29
8.88
5.52
3.42
2.33
1.76
1.19
0.27
-0.97
-2.31
-3.43
-4.22
-4.87
-5.77
-7.40
-10.14
-14.09
-19.06
-24.52
-29.63
-33.32
-34.54
-32.52
-27.06
-18.62
-8.31
2.50
12.43
20.44
25.94
28.73
28.97
27.04
23.53
19.18
14.75
10.91
8.06
6.27
5.26
4.56
3.69
2.38
0.63
-1.31
-3.14
-4.68
-5.98
-7.38
-9.26
-12.06
-16.04
-21.13
-26.88
-32.42
-36.50
-37.83
-35.42
-29.00
-19.20
-7.38
4.72
15.54
24.04
29.74
32.63
32.89
30.81
26.79
21.46
15.68
10.35
6.13
3.28
1.59
0.54
-0.40
-1.49
-2.73
-3.94
-4.99
-5.93
-7.06
-8.82
-11.62
-15.71
-20.99
-26.92
-32.56
-36.63
-37.89
-35.46
-29.15
-19.66
-8.33
3.20
13.45
21.46
26.84
29.66
30.20
28.83
25.97
22.11
17.84
13.78
10.46
8.09
6.60
5.62
4.72
3.59
2.15
0.52
-1.09
-2.58
-3.94
-5.44
-7.49
-10.53
-14.89
-20.47
-26.67
-32.29
-35.90
-36.21
-32.54
-25.13
-14.99
-3.60
7.59
17.49
25.42
31.08
34.32
35.07
33.43
29.80
24.92
19.76
15.26
11.98
9.98
8.88
8.13
7.31
6.23
4.94
3.57
2.13
0.49
-1.59
-4.34
-7.89
-12.28
-17.44
-23.13
-28.78
-33.47
-36.05
-35.44
-31.06
-23.09
-12.52
-0.86
10.35
19.87
26.96
31.41
33.26
32.76
30.22
26.08
21.00
15.75
11.12
7.66
5.54
4.53
4.11
3.76
3.11
2.07
0.78
-0.60
-2.02
-3.67
-5.89
-9.14
-13.66
-19.39
-25.79
-31.86
-36.36
-38.00
-35.91
-29.91
-20.60
-9.27
2.51
13.28
22.01
28.15
31.57
32.42
30.96
27.65
23.13
18.19
13.65
10.13
7.85
6.64
5.99
5.34
4.30
2.78
0.96
-0.84
-2.41
-3.80
-5.35
-7.57
-11.00
-15.90
-22.09
-28.82
-34.87
-38.78
-39.26
-35.60
-27.96
-17.31
-5.21
6.74
17.25
25.57
31.40
34.69
35.49
33.94
30.39
25.49
20.18
15.38
11.79
9.61
8.53
8.00
7.41
6.39
4.87
2.99
0.99
-0.96
-2.91
-5.09
-7.86
-11.59
-16.49
-22.53
-29.25
-35.79
-40.91
-43.27
-41.80
-36.07
-26.56
-14.53
-1.65
10.51
20.87
28.97
34.81
38.52
40.18
39.75
37.29
33.16
28.06
22.85
18.37
15.11
13.14
12.12
11.49
10.72
9.48
7.70
5.57
3.32
1.12
-1.03
-3.32
-6.03
-9.41
-13.66
-18.83
-24.80
-31.17
-37.15
-41.59
-43.16
-40.81
-34.14
-23.69
-10.80
2.77
15.36
25.79
33.49
38.40
40.77
40.98
39.48
36.70
33.10
29.16
25.33
22.05
19.66
18.30
17.84
17.91
17.98
17.56
16.41
14.56
12.27
9.77
7.22
4.66
2.04
-0.68
-3.54
-6.63
-10.10
-14.18
-18.98
-24.41
-29.93
-34.57
-37.03
-36.04
-30.78
-21.22
-8.26
6.49
21.19
34.26
44.71
52.16
56.57
57.91
56.08
51.03
43.09
33.13
22.49
12.63
4.72
-0.75
-3.94
-5.51
-6.24
-6.77
-7.46
-8.44
-9.70
-11.21
-12.96
-14.98
-17.23
-19.66
-22.15
-24.63
-27.20
-30.08
-33.61
-38.04
-43.17
-48.26
-51.96
-52.71
-49.27
-41.21
-29.21
-14.94
-0.53
12.05
21.55
27.62
30.59
31.16
29.99
27.56
24.20
20.26
16.20
12.56
9.82
8.26
7.87
8.32
9.10
9.66
9.55
8.58
6.77
4.34
1.62
-1.12
-3.79
-6.49
-9.40
-12.70
-16.52
-20.90
-25.80
-30.95
-35.82
-39.50
-40.84
-38.82
-32.93
-23.49
-11.63
0.98
12.67
22.18
28.97
33.07
34.91
34.93
33.52
30.89
27.26
22.95
18.48
14.44
11.37
9.55
8.89
8.99
9.25
9.15
8.36
6.78
4.50
1.72
-1.36
-4.57
-7.80
-10.98
-14.12
-17.35
-20.85
-24.84
-29.37
-34.16
-38.43
-41.02
-40.69
-36.51
-28.35
-17.02
-4.02
8.79
19.84
28.16
33.48
36.09
36.48
35.15
32.51
28.99
25.06
21.25
18.06
15.78
14.45
13.79
13.37
12.82
11.94
10.73
9.31
7.78
6.22
4.59
2.81
0.80
-1.55
-4.31
-7.62
-11.59
-16.35
-21.81
-27.64
-33.13
-37.22
-38.71
-36.68
-30.80
-21.53
-10.12
1.79
12.63
21.32
27.39
30.89
32.19
31.75
29.98
27.26
23.96
20.44
17.06
14.09
11.70
9.97
8.86
8.20
7.75
7.22
6.36
5.05
3.36
1.45
-0.50
-2.47
-4.60
-7.14
-10.36
-14.36
-19.10
-24.29
-29.53
-34.26
-37.78
-39.31
-38.18
-34.02
-27.00
-17.89
-7.91
1.67
9.81
15.97
20.04
22.14
22.45
21.14
18.42
14.65
10.40
6.35
3.10
0.98
-0.00
-0.15
0.11
0.32
0.20
-0.35
-1.23
-2.29
-3.36
-4.48
-5.85
-7.81
-10.66
-14.50
-19.14
-24.03
-28.44
-31.53
-32.56
-31.01
-26.71
-19.91
-11.30
-1.84
7.39
15.42
21.59
25.57
27.28
26.86
24.64
21.04
16.65
12.18
8.28
5.41
3.74
3.12
3.14
3.32
3.22
2.62
1.46
-0.13
-1.94
-3.85
-5.81
-7.96
-10.53
-13.74
-17.70
-22.30
-27.09
-31.28
-33.91
-34.07
-31.20
-25.31
-17.10
-7.68
1.68
9.99
16.73
21.76
25.10
26.76
26.68
24.83
21.44
17.08
12.54
8.59
5.72
4.05
3.32
3.08
2.87
2.39
1.52
0.32
-1.09
-2.60
-4.25
-6.14
-8.54
-11.63
-15.46
-19.82
-24.19
-27.80
-29.78
-29.38
-26.23
-20.48
-12.75
-4.04
4.58
12.26
18.45
22.89
25.56
26.48
25.71
23.43
20.00
15.97
12.05
8.85
6.71
5.60
5.16
4.86
4.27
3.20
1.74
0.17
-1.30
-2.61
-3.93
-5.54
-7.77
-10.80
-14.65
-19.09
-23.61
-27.45
-29.68
-29.48
-26.40
-20.56
-12.72
-4.00
4.41
11.65
17.27
21.17
23.44
24.15
23.38
21.24
18.12
14.56
11.20
8.53
6.71
5.58
4.76
3.93
2.94
1.88
0.95
0.30
-0.11
-0.51
-1.25
-2.69
-5.07
-8.47
-12.71
-17.46
-22.15
-26.02
-28.27
-28.16
-25.31
-19.86
-12.52
-4.37
3.44
10.05
14.98
18.20
19.84
20.08
19.07
16.96
14.03
10.77
7.70
5.26
3.65
2.76
2.28
1.86
1.27
0.44
-0.52
-1.48
-2.37
-3.27
-4.38
-6.02
-8.49
-11.86
-15.92
-20.17
-23.86
-26.16
-26.44
-24.34
-19.90
-13.60
-6.20
1.43
8.48
14.41
18.93
21.90
23.28
23.00
21.13
17.96
14.09
10.29
7.28
5.42
4.61
4.40
4.20
3.61
2.52
1.08
-0.47
-1.94
-3.28
-4.58
-5.96
-7.64
-9.82
-12.71
-16.34
-20.48
-24.48
-27.41
-28.26
-26.31
-21.48
-14.36
-6.06
2.20
9.46
15.21
19.36
22.00
23.17
22.84
21.06
18.05
14.37
10.76
7.92
6.20
5.51
5.38
5.24
4.62
3.42
1.83
0.20
-1.21
-2.32
-3.34
-4.61
-6.45
-9.07
-12.47
-16.48
-20.66
-24.39
-26.89
-27.40
-25.37
-20.74
-14.01
-6.09
1.91
9.02
14.63
18.54
20.83
21.69
21.35
19.99
17.82
15.09
12.21
9.61
7.65
6.53
6.17
6.24
6.28
5.88
4.86
3.31
1.52
-0.17
-1.61
-2.85
-4.17
-5.88
-8.21
-11.22
-14.74
-18.49
-22.02
-24.79
-26.21
-25.73
-22.97
-17.99
-11.28
-3.71
3.71
10.15
15.10
18.41
20.22
20.70
20.01
18.31
15.81
12.83
9.82
7.26
5.52
4.78
4.92
5.55
6.14
6.17
5.35
3.70
1.50
-0.83
-2.95
-4.74
-6.33
-8.00
-10.04
-12.63
-15.78
-19.29
-22.75
-25.56
-26.99
-26.37
-23.31
-17.95
-10.91
-3.18
4.16
10.27
14.73
17.47
18.66
18.53
17.24
14.95
11.94
8.69
5.79
3.76
2.79
2.70
2.96
2.99
2.47
1.40
0.09
-1.11
-2.03
-2.79
-3.68
-4.99
-6.93
-9.53
-12.72
-16.32
-20.00
-23.19
-25.16
-25.17
-22.79
-18.06
-11.55
-4.15
3.15
9.60
14.77
18.45
20.64
21.37
20.72
18.84
16.05
12.82
9.67
7.08
5.30
4.30
3.81
3.43
2.82
1.80
0.46
-0.98
-2.29
-3.34
-4.22
-5.18
-6.54
-8.61
-11.53
-15.27
-19.57
-23.98
-27.83
-30.35
-30.79
-28.65
-23.81
-16.72
-8.26
0.41
8.26
14.55
19.03
21.78
23.08
23.18
22.22
20.37
17.87
15.16
12.72
10.95
9.92
9.42
8.98
8.21
6.86
5.02
2.98
1.09
-0.39
-1.38
-2.04
-2.71
-3.80
-5.70
-8.65
-12.67
-17.43
-22.33
-26.47
-28.91
-28.79
-25.67
-19.68
-11.57
-2.55
6.06
13.19
18.33
21.51
23.10
23.56
23.17
22.06
20.32
18.10
15.69
13.42
11.56
10.20
9.26
8.57
7.93
7.21
6.35
5.33
4.22
3.06
1.88
0.61
-0.86
-2.68
-4.99
-7.78
-11.02
-14.59
-18.32
-21.99
-25.21
-27.39
-27.84
-25.93
-21.42
-14.61
-6.36
2.16
9.79
15.77
19.79
22.02
22.79
22.45
21.22
19.24
16.66
13.78
10.98
8.64
6.98
5.99
5.42
4.95
4.34
3.47
2.40
1.27
0.12
-1.07
-2.45
-4.16
-6.30
-8.84
-11.70
-14.80
-18.02
-21.18
-23.93
-25.74
-26.00
-24.16
-20.00
-13.78
-6.19
1.82
9.33
15.66
20.46
23.69
25.44
25.86
25.08
23.27
20.68
17.64
14.58
11.89
9.87
8.61
8.02
7.83
7.70
7.35
6.59
5.40
3.85
2.09
0.23
-1.66
-3.53
-5.41
-7.35
-9.48
-11.92
-14.70
-17.61
-20.11
-21.41
-20.75
-17.68
-12.24
-5.05
2.99
10.96
18.14
24.06
28.46
31.18
32.20
31.64
29.85
27.34
24.65
22.26
20.51
19.56
19.41
19.93
20.88
21.96
22.96
23.76
24.40
24.97
25.51
25.96
26.16
25.96
25.30
24.16
22.57
20.46
17.66
13.95
9.14
3.21
-3.67
-11.14
-18.74
-26.03
-32.77
-38.98
-44.92
-50.97
-57.46
-64.51
-71.96
-79.33
-85.86
-90.52
-92.17
-89.75
-82.56
-70.52
-54.35
-35.37
-15.25
4.43
22.43
37.89
50.28
59.19
64.36
65.72
63.55
58.49
51.40
43.14
34.33
25.21
15.71
5.75
-4.54
-14.62
-23.52
-30.07
-33.28
-32.69
-28.60
-22.01
-14.25
-6.65
-0.12
4.93
8.46
10.56
11.30
10.72
8.97
6.46
3.81
1.61
0.25
-0.35
-0.56
-0.94
-1.89
-3.53
-5.64
-7.82
-9.65
-10.90
-11.60
-12.02
-12.59
-13.71
-15.66
-18.54
-22.18
-26.18
-29.93
-32.65
-33.58
-32.14
-28.15
-21.95
-14.30
-6.14
1.64
8.42
13.80
17.56
19.46
19.38
17.41
13.97
9.85
5.98
3.16
1.76
1.67
2.40
3.32
3.85
3.68
2.75
1.26
-0.46
-2.12
-3.52
-4.68
-5.83
-7.32
-9.48
-12.46
-16.12
-19.99
-23.31
-25.21
-24.93
-22.06
-16.72
-9.56
-1.53
6.32
13.11
18.28
21.59
23.04
22.77
21.00
18.08
14.47
10.72
7.34
4.70
2.89
1.73
0.88
0.03
-1.00
-2.19
-3.39
-4.43
-5.33
-6.31
-7.71
-9.91
-13.12
-17.33
-22.25
-27.34
-31.82
-34.80
-35.43
-33.15
-27.88
-20.13
-10.89
-1.34
7.43
14.68
20.06
23.50
25.08
24.94
23.27
20.41
16.90
13.36
10.32
8.09
6.62
5.65
4.81
3.86
2.78
1.71
0.80
0.05
-0.70
-1.74
-3.36
-5.74
-8.98
-13.04
-17.80
-22.92
-27.75
-31.36
-32.65
-30.73
-25.34
-16.97
-6.82
3.63
13.02
20.54
25.93
29.31
30.94
30.98
29.53
26.75
22.98
18.83
14.97
11.93
9.91
8.76
8.03
7.26
6.17
4.73
3.12
1.56
0.17
-1.13
-2.59
-4.56
-7.29
-10.91
-15.30
-20.14
-24.88
-28.76
-30.90
-30.44
-26.88
-20.20
-11.05
-0.60
9.77
18.83
25.78
30.20
32.01
31.35
28.51
24.03
18.70
13.49
9.25
6.47
5.16
4.93
5.16
5.32
5.04
4.20
2.87
1.26
-0.40
-1.95
-3.44
-5.11
-7.37
-10.61
-14.92
-19.93
-24.88
-28.70
-30.34
-29.02
-24.51
-17.17
-7.89
2.13
11.62
19.56
25.29
28.53
29.24
27.63
24.10
19.31
14.11
9.47
6.13
4.39
4.02
4.37
4.67
4.41
3.43
1.94
0.30
-1.20
-2.51
-3.82
-5.53
-8.00
-11.50
-16.03
-21.22
-26.32
-30.32
-32.15
-30.95
-26.40
-18.82
-9.17
1.26
11.12
19.33
25.26
28.68
29.66
28.48
25.54
21.38
16.71
12.30
8.83
6.66
5.69
5.46
5.32
4.78
3.67
2.17
0.61
-0.77
-1.95
-3.15
-4.77
-7.16
-10.57
-15.06
-20.37
-25.87
-30.55
-33.25
-32.90
-28.93
-21.58
-11.79
-0.99
9.38
18.25
25.02
29.52
31.82
32.04
30.37
27.17
22.97
18.50
14.50
11.50
9.68
8.83
8.48
8.11
7.34
6.03
4.31
2.39
0.51
-1.21
-2.85
-4.61
-6.80
-9.74
-13.57
-18.16
-22.95
-27.05
-29.42
-29.15
-25.80
-19.53
-11.11
-1.63
7.75
16.14
23.00
28.07
31.28
32.62
32.07
29.72
25.89
21.21
16.54
12.73
10.33
9.46
9.70
10.32
10.64
10.22
8.97
7.08
4.89
2.68
0.55
-1.48
-3.54
-5.83
-8.51
-11.78
-15.68
-20.07
-24.56
-28.37
-30.53
-30.07
-26.35
-19.41
-10.03
0.41
10.37
18.61
24.45
27.89
29.23
28.90
27.18
24.34
20.68
16.74
13.19
10.62
9.28
9.00
9.25
9.44
9.13
8.18
6.77
5.19
3.68
2.30
0.96
-0.51
-2.24
-4.34
-6.92
-10.08
-13.88
-18.18
-22.51
-26.06
-27.81
-26.91
-23.02
-16.49
-8.31
0.28
8.12
14.47
19.06
21.88
22.99
22.44
20.32
16.91
12.76
8.65
5.30
3.17
2.25
2.19
2.41
2.47
2.15
1.44
0.47
-0.64
-1.88
-3.31
-4.99
-7.00
-9.39
-12.26
-15.71
-19.71
-23.99
-27.88
-30.45
-30.67
-27.87
-22.01
-13.72
-4.16
5.35
13.68
20.04
24.05
25.66
25.10
22.76
19.29
15.37
11.69
8.79
6.95
6.14
6.08
6.24
6.07
5.12
3.28
0.80
-1.76
-3.78
-4.92
-5.25
-5.21
-5.49
-6.68
-9.20
-13.14
-18.23
-23.78
-28.73
-31.81
-31.89
-28.42
-21.68
-12.73
-3.08
5.84
13.05
18.17
21.35
22.89
23.14
22.32
20.64
18.31
15.66
13.04
10.80
9.09
7.84
6.81
5.70
4.30
2.67
1.06
-0.23
-1.04
-1.44
-1.79
-2.53
-4.00
-6.38
-9.65
-13.64
-18.06
-22.38
-25.89
-27.69
-27.00
-23.38
-17.03
-8.80
0.10
8.31
14.87
19.36
21.86
22.76
22.51
21.42
19.66
17.29
14.49
11.56
8.90
6.87
5.62
5.03
4.73
4.30
3.45
2.13
0.55
-1.01
-2.37
-3.56
-4.80
-6.45
-8.80
-12.01
-15.98
-20.36
-24.61
-28.03
-29.85
-29.46
-26.57
-21.34
-14.42
-6.79
0.56
6.83
11.58
14.67
16.17
16.14
14.64
11.79
7.84
3.31
-1.19
-5.07
-7.98
-9.94
-11.20
-12.18
-13.22
-14.46
-15.83
-17.15
-18.26
-19.10
-19.74
-20.34
-21.06
-21.99
-23.01
-23.93
-24.35
-23.83
-21.92
-18.29
-12.77
-5.45
3.21
12.44
21.28
28.83
34.44
37.83
39.18
38.84
37.23
34.67
31.40
27.64
23.70
19.97
16.74
14.15
12.10
10.34
8.70
7.15
5.80
4.81
4.17
3.65
2.85
1.33
-1.26
-4.97
-9.56
-14.53
-19.19
-22.78
-24.60
-24.16
-21.29
-16.22
-9.55
-2.18
4.97
11.12
15.81
18.87
20.34
20.37
19.10
16.74
13.58
10.09
6.78
4.11
2.30
1.24
0.63
0.07
-0.68
-1.64
-2.66
-3.55
-4.25
-4.90
-5.81
-7.33
-9.78
-13.24
-17.49
-22.01
-26.02
-28.61
-29.00
-26.74
-21.85
-14.90
-6.83
1.33
8.66
14.57
18.79
21.31
22.25
21.79
20.17
17.65
14.62
11.49
8.68
6.49
5.02
4.12
3.45
2.65
1.49
-0.03
-1.70
-3.19
-4.34
-5.18
-6.07
-7.50
-9.94
-13.54
-18.06
-22.80
-26.81
-29.05
-28.78
-25.67
-19.98
-12.43
-4.01
4.25
11.53
17.29
21.27
23.41
23.86
22.85
20.76
18.00
15.05
12.28
9.98
8.25
7.01
6.08
5.25
4.34
3.28
2.12
1.00
0.01
-0.81
-1.66
-2.82
-4.63
-7.35
-11.00
-15.33
-19.83
-23.72
-26.11
-26.22
-23.59
-18.30
-11.04
-2.89
4.96
11.59
16.52
19.71
21.40
21.86
21.23
19.58
17.08
14.06
10.99
8.39
6.57
5.51
4.93
4.41
3.62
2.46
1.05
-0.36
-1.59
-2.60
-3.52
-4.59
-6.11
-8.33
-11.37
-15.16
-19.32
-23.10
-25.57
-25.84
-23.41
-18.36
-11.39
-3.56
4.04
10.57
15.54
18.80
20.37
20.36
18.89
16.23
12.80
9.17
5.95
3.63
2.38
2.05
2.20
2.30
1.97
1.09
-0.15
-1.43
-2.47
-3.24
-3.97
-5.06
-6.90
-9.71
-13.37
-17.43
-21.20
-23.82
-24.51
-22.80
-18.66
-12.51
-5.17
2.41
9.38
15.13
19.33
21.83
22.60
21.73
19.42
16.07
12.25
8.59
5.59
3.49
2.27
1.67
1.38
1.17
0.92
0.59
0.15
-0.47
-1.41
-2.80
-4.76
-7.37
-10.63
-14.45
-18.63
-22.75
-26.20
-28.16
-27.90
-25.00
-19.57
-12.26
-4.13
3.71
10.39
15.46
18.86
20.76
21.38
20.91
19.47
17.22
14.45
11.56
9.03
7.22
6.23
5.85
5.62
5.05
3.85
2.09
0.17
-1.47
-2.55
-3.19
-3.85
-5.10
-7.38
-10.80
-15.09
-19.69
-23.89
-26.88
-27.98
-26.70
-22.95
-17.03
-9.68
-1.83
5.59
11.87
16.63
19.78
21.42
21.81
21.20
19.85
18.02
15.92
13.77
11.75
10.01
8.60
7.47
6.53
5.65
4.73
3.80
2.87
2.00
1.14
0.12
-1.27
-3.27
-6.01
-9.50
-13.57
-17.93
-22.10
-25.47
-27.36
-27.18
-24.60
-19.69
-12.97
-5.29
2.41
9.33
14.96
19.09
21.75
23.07
23.14
22.05
19.94
17.09
13.94
10.96
8.60
7.08
6.34
6.08
5.97
5.72
5.23
4.52
3.70
2.77
1.67
0.25
-1.58
-3.87
-6.60
-9.74
-13.22
-16.86
-20.31
-23.02
-24.33
-23.67
-20.78
-15.86
-9.52
-2.63
4.04
9.88
14.64
18.21
20.51
21.38
20.68
18.45
15.04
11.09
7.43
4.67
3.08
2.44
2.32
2.23
1.93
1.40
0.82
0.34
-0.04
-0.52
-1.36
-2.81
-5.03
-7.99
-11.51
-15.29
-18.92
-21.92
-23.73
-23.89
-22.04
-18.18
-12.63
-6.04
0.78
7.04
12.15
15.81
17.94
18.60
17.95
16.22
13.71
10.81
7.95
5.51
3.73
2.65
2.15
1.98
1.89
1.67
1.21
0.47
-0.52
-1.75
-3.25
-5.09
-7.34
-10.07
-13.27
-16.81
-20.37
-23.45
-25.38
-25.51
-23.40
-19.05
-12.89
-5.71
1.58
8.20
13.65
17.67
20.18
21.17
20.75
19.12
16.62
13.74
10.95
8.61
6.88
5.68
4.83
4.05
3.20
2.20
1.08
-0.07
-1.16
-2.22
-3.35
-4.75
-6.57
-8.94
-11.82
-15.06
-18.34
-21.22
-23.16
-23.61
-22.14
-18.58
-13.14
-6.42
0.75
7.51
13.22
17.53
20.37
21.81
21.94
20.84
18.66
15.69
12.45
9.48
7.20
5.77
5.03
4.62
4.16
3.43
2.41
1.24
0.09
-1.00
-2.08
-3.33
-4.96
-7.16
-9.99
-13.37
-16.99
-20.34
-22.72
-23.42
-21.94
-18.19
-12.51
-5.64
1.51
8.15
13.73
17.96
20.74
22.02
21.79
20.11
17.27
13.78
10.30
7.40
5.40
4.26
3.70
3.32
2.85
2.18
1.34
0.42
-0.54
-1.61
-2.89
-4.51
-6.58
-9.15
-12.22
-15.62
-19.02
-21.86
-23.50
-23.36
-21.11
-16.86
-11.10
-4.63
1.73
7.34
11.82
15.06
17.03
17.73
17.12
15.28
12.45
9.11
5.80
3.01
1.00
-0.25
-0.90
-1.13
-1.10
-0.94
-0.79
-0.85
-1.34
-2.44
-4.27
-6.86
-10.13
-13.94
-17.93
-21.60
-24.28
-25.36
-24.36
-21.22
-16.23
-10.00
-3.26
3.26
8.98
13.46
16.47
17.97
18.08
17.00
15.06
12.57
9.88
7.31
5.08
3.29
1.92
0.84
-0.08
-0.88
-1.57
-2.12
-2.57
-3.09
-3.91
-5.33
-7.56
-10.66
-14.49
-18.69
-22.59
-25.39
-26.26
-24.68
-20.56
-14.37
-6.99
0.60
7.49
13.10
17.11
19.46
20.23
19.65
18.04
15.79
13.31
10.94
8.87
7.20
5.86
4.74
3.71
2.63
1.51
0.40
-0.61
-1.48
-2.28
-3.27
-4.80
-7.21
-10.67
-15.04
-19.80
-24.06
-26.71
-26.82
-23.92
-18.23
-10.65
-2.40
5.37
11.88
16.81
20.18
22.08
22.60
21.85
20.02
17.50
14.76
12.22
10.14
8.53
7.25
6.13
5.04
3.96
2.93
2.03
1.28
0.60
-0.20
-1.36
-3.19
-5.91
-9.55
-13.93
-18.57
-22.71
-25.43
-25.88
-23.56
-18.52
-11.43
-3.40
4.39
11.05
16.18
19.78
22.01
23.04
22.87
21.55
19.27
16.42
13.54
11.16
9.53
8.62
8.11
7.60
6.76
5.47
3.82
2.12
0.66
-0.41
-1.17
-1.96
-3.24
-5.41
-8.63
-12.79
-17.47
-21.98
-25.54
-27.27
-26.50
-22.97
-16.96
-9.31
-1.20
6.24
12.24
16.50
19.10
20.27
20.16
18.90
16.70
13.90
11.06
8.69
7.11
6.30
5.92
5.52
4.77
3.52
1.91
0.27
-1.07
-1.95
-2.43
-2.82
-3.61
-5.25
-8.01
-11.91
-16.59
-21.43
-25.60
-28.18
-28.36
-25.69
-20.28
-12.79
-4.38
3.69
10.42
15.29
18.27
19.67
19.80
18.94
17.24
14.88
12.15
9.51
7.35
5.91
5.12
4.62
3.97
2.83
1.18
-0.58
-1.97
-2.60
-2.54
-2.28
-2.60
-4.14
-7.18
-11.56
-16.71
-21.88
-26.30
-29.18
-29.82
-27.75
-22.85
-15.60
-6.98
1.76
9.47
15.45
19.49
21.76
22.49
21.95
20.38
18.06
15.38
12.80
10.71
9.27
8.40
7.81
7.14
6.13
4.70
2.97
1.25
-0.21
-1.31
-2.17
-3.17
-4.75
-7.28
-10.91
-15.47
-20.53
-25.39
-29.12
-30.83
-29.83
-25.87
-19.31
-11.07
-2.35
5.76
12.47
17.52
20.94
22.89
23.56
23.07
21.55
19.27
16.59
13.90
11.59
9.84
8.62
7.75
6.96
6.05
4.98
3.89
2.93
2.15
1.42
0.46
-1.07
-3.41
-6.67
-10.76
-15.47
-20.38
-24.83
-27.97
-28.92
-27.08
-22.39
-15.45
-7.32
0.86
8.13
14.01
18.39
21.39
23.17
23.80
23.30
21.70
19.19
16.15
13.07
10.42
8.53
7.41
6.80
6.33
5.69
4.78
3.70
2.62
1.61
0.55
-0.80
-2.70
-5.25
-8.45
-12.17
-16.25
-20.41
-24.29
-27.29
-28.75
-28.04
-24.86
-19.36
-12.13
-4.08
3.84
10.86
16.45
20.35
22.49
22.92
21.73
19.15
15.62
11.70
8.08
5.34
3.73
3.10
3.02
2.98
2.64
1.91
0.94
-0.09
-1.10
-2.17
-3.49
-5.25
-7.63
-10.68
-14.42
-18.67
-23.05
-26.88
-29.31
-29.53
-27.09
-22.00
-14.82
-6.49
1.98
9.64
15.83
20.23
22.75
23.47
22.58
20.32
17.05
13.23
9.42
6.13
3.68
2.17
1.42
1.12
0.92
0.59
0.05
-0.71
-1.70
-2.94
-4.54
-6.61
-9.29
-12.67
-16.77
-21.34
-25.88
-29.56
-31.45
-30.75
-27.10
-20.69
-12.28
-3.02
5.94
13.63
19.50
23.39
25.40
25.73
24.64
22.43
19.44
16.16
13.08
10.57
8.75
7.44
6.32
5.10
3.69
2.24
0.96
-0.05
-0.92
-1.93
-3.42
-5.65
-8.73
-12.66
-17.31
-22.32
-27.01
-30.40
-31.48
-29.51
-24.41
-16.80
-7.83
1.25
9.43
16.18
21.31
24.86
26.88
27.38
26.38
24.06
20.78
17.11
13.66
10.93
9.14
8.20
7.74
7.30
6.50
5.20
3.50
1.67
-0.06
-1.59
-3.07
-4.80
-7.14
-10.33
-14.42
-19.17
-23.99
-28.05
-30.40
-30.18
-26.90
-20.68
-12.24
-2.78
6.41
14.30
20.34
24.49
26.94
27.89
27.45
25.64
22.61
18.76
14.78
11.34
8.91
7.54
6.89
6.50
5.97
5.15
4.12
3.02
1.97
0.93
-0.30
-1.93
-4.20
-7.31
-11.29
-15.96
-20.87
-25.29
-28.29
-28.99
-26.83
-21.77
-14.38
-5.66
3.17
11.08
17.34
21.65
24.06
24.75
23.94
21.83
18.68
14.86
10.91
7.40
4.72
3.00
2.02
1.42
0.87
0.26
-0.35
-0.79
-1.02
-1.21
-1.73
-3.01
-5.34
-8.83
-13.29
-18.29
-23.22
-27.30
-29.72
-29.78
-27.11
-21.81
-14.43
-5.91
2.67
10.38
16.57
20.95
23.50
24.35
23.69
21.73
18.77
15.25
11.68
8.58
6.25
4.72
3.75
2.96
2.04
0.88
-0.46
-1.77
-2.93
-3.93
-4.94
-6.26
-8.25
-11.19
-15.14
-19.82
-24.54
-28.30
-30.08
-29.10
-25.18
-18.73
-10.64
-1.98
6.32
13.63
19.62
24.06
26.78
27.58
26.42
23.52
19.45
15.02
11.04
8.07
6.25
5.32
4.77
4.16
3.28
2.16
0.97
-0.10
-1.05
-2.05
-3.34
-5.17
-7.68
-10.93
-14.88
-19.35
-23.92
-27.90
-30.40
-30.52
-27.71
-21.95
-13.88
-4.60
4.66
12.84
19.31
23.84
26.52
27.50
26.93
24.97
21.84
17.97
13.96
10.43
7.86
6.40
5.82
5.72
5.65
5.32
4.63
3.62
2.35
0.85
-0.87
-2.87
-5.20
-7.94
-11.19
-14.98
-19.15
-23.26
-26.59
-28.25
-27.51
-23.99
-17.90
-9.99
-1.32
7.03
14.23
19.85
23.80
26.13
26.90
26.07
23.71
20.06
15.71
11.43
7.93
5.63
4.51
4.23
4.30
4.29
3.99
3.38
2.50
1.42
0.15
-1.34
-3.14
-5.34
-8.04
-11.26
-14.96
-18.95
-22.84
-26.05
-27.84
-27.51
-24.59
-19.08
-11.54
-3.01
5.34
12.50
17.91
21.39
23.02
22.95
21.34
18.44
14.70
10.75
7.29
4.78
3.31
2.64
2.32
1.97
1.39
0.60
-0.24
-1.02
-1.71
-2.41
-3.35
-4.78
-6.95
-9.96
-13.68
-17.79
-21.70
-24.68
-26.00
-25.10
-21.73
-16.09
-8.78
-0.74
7.01
13.54
18.26
20.91
21.57
20.55
18.24
15.14
11.72
8.44
5.68
3.65
2.41
1.83
1.70
1.71
1.60
1.18
0.37
-0.84
-2.37
-4.15
-6.16
-8.44
-11.09
-14.19
-17.71
-21.37
-24.63
-26.80
-27.15
-25.20
-20.82
-14.39
-6.71
1.24
8.53
14.53
18.93
21.74
22.99
22.75
21.08
18.16
14.46
10.63
7.35
5.10
3.92
3.53
3.44
3.22
2.62
1.63
0.33
-1.19
-2.91
-4.92
-7.33
-10.23
-13.65
-17.48
-21.37
-24.73
-26.82
-26.93
-24.67
-20.08
-13.67
-6.25
1.27
8.17
13.94
18.38
21.45
23.16
23.55
22.62
20.47
17.38
13.81
10.34
7.52
5.62
4.55
3.90
3.16
2.02
0.49
-1.14
-2.51
-3.47
-4.17
-5.02
-6.49
-8.88
-12.25
-16.43
-20.97
-25.19
-28.20
-29.09
-27.13
-22.16
-14.67
-5.73
3.35
11.46
17.89
22.33
24.77
25.30
24.10
21.49
18.00
14.31
11.04
8.60
7.11
6.39
6.13
5.93
5.42
4.37
2.75
0.74
-1.33
-3.11
-4.45
-5.53
-6.76
-8.62
-11.40
-15.12
-19.40
-23.57
-26.85
-28.43
-27.70
-24.36
-18.55
-10.85
-2.20
6.28
13.63
19.16
22.57
23.88
23.34
21.29
18.18
14.51
10.82
7.62
5.28
3.93
3.41
3.34
3.23
2.72
1.67
0.21
-1.32
-2.60
-3.52
-4.22
-5.11
-6.67
-9.25
-12.91
-17.35
-21.84
-25.48
-27.28
-26.52
-22.89
-16.67
-8.62
0.17
8.58
15.70
20.95
24.03
24.93
23.82
21.05
17.14
12.79
8.71
5.48
3.41
2.47
2.34
2.53
2.56
2.16
1.26
0.02
-1.32
-2.59
-3.80
-5.14
-6.90
-9.38
-12.71
-16.80
-21.27
-25.41
-28.30
-29.00
-26.85
-21.72
-14.16
-5.24
3.76
11.72
17.95
22.18
24.45
24.97
23.99
21.82
18.83
15.51
12.32
9.65
7.67
6.33
5.41
4.62
3.68
2.47
1.05
-0.37
-1.59
-2.51
-3.28
-4.28
-5.97
-8.71
-12.57
-17.29
-22.27
-26.67
-29.53
-30.01
-27.61
-22.33
-14.78
-5.95
2.96
10.97
17.50
22.30
25.37
26.82
26.75
25.28
22.71
19.48
16.13
13.17
10.93
9.47
8.61
8.04
7.40
6.45
5.12
3.50
1.80
0.20
-1.18
-2.39
-3.62
-5.13
-7.21
-10.10
-13.87
-18.35
-23.05
-27.11
-29.53
-29.35
-26.06
-19.74
-11.15
-1.54
7.77
15.69
21.62
25.46
27.42
27.86
27.10
25.38
22.97
20.21
17.49
15.16
13.42
12.19
11.23
10.26
9.13
7.84
6.55
5.35
4.29
3.24
2.08
0.71
-0.88
-2.67
-4.65
-6.87
-9.41
-12.39
-15.86
-19.74
-23.72
-27.23
-29.47
-29.61
-27.02
-21.66
-14.09
-5.39
3.21
10.66
16.38
20.27
22.46
23.20
22.62
20.88
18.19
14.90
11.50
8.45
6.14
4.71
4.12
4.16
4.51
4.81
4.79
4.29
3.29
1.85
0.06
-1.98
-4.19
-6.51
-8.85
-11.22
-13.66
-16.25
-19.04
-21.83
-24.15
-25.34
-24.74
-21.99
-17.14
-10.69
-3.39
3.93
10.55
15.95
19.76
21.80
22.02
20.47
17.43
13.41
9.10
5.25
2.51
1.21
1.24
2.16
3.35
4.20
4.38
3.73
2.33
0.32
-2.03
-4.45
-6.62
-8.37
-9.76
-11.07
-12.72
-15.03
-17.94
-21.05
-23.63
-24.86
-24.06
-20.91
-15.52
-8.40
-0.41
7.52
14.50
19.92
23.47
25.01
24.55
22.24
18.45
13.82
9.22
5.55
3.37
2.71
3.08
3.67
3.76
2.94
1.21
-1.08
-3.43
-5.47
-6.95
-7.91
-8.59
-9.41
-10.77
-12.95
-15.94
-19.46
-22.90
-25.49
-26.44
-25.13
-21.31
-15.21
-7.55
0.63
8.28
14.60
19.19
21.96
22.94
22.25
20.08
16.81
13.08
9.62
7.04
5.55
4.93
4.72
4.44
3.81
2.81
1.60
0.36
-0.83
-1.90
-2.87
-3.79
-4.80
-6.13
-8.06
-10.74
-14.19
-18.07
-21.73
-24.28
-24.84
-22.79
-18.05
-11.14
-3.07
4.97
11.94
17.20
20.46
21.76
21.29
19.36
16.43
13.10
9.99
7.60
6.15
5.57
5.54
5.68
5.55
4.88
3.54
1.64
-0.55
-2.56
-4.04
-4.87
-5.26
-5.71
-6.77
-8.78
-11.83
-15.59
-19.47
-22.69
-24.42
-23.99
-21.05
-15.75
-8.71
-0.92
6.59
12.93
17.48
19.98
20.40
19.01
16.28
12.84
9.36
6.44
4.43
3.38
3.08
3.17
3.19
2.78
1.78
0.25
-1.50
-3.09
-4.23
-4.94
-5.50
-6.35
-7.89
-10.26
-13.36
-16.83
-20.13
-22.60
-23.56
-22.41
-18.88
-13.17
-5.95
1.82
9.11
15.12
19.33
21.51
21.68
20.01
16.89
12.94
8.92
5.53
3.27
2.22
2.12
2.47
2.74
2.54
1.70
0.30
-1.43
-3.17
-4.71
-6.00
-7.21
-8.68
-10.79
-13.75
-17.46
-21.45
-24.89
-26.83
-26.50
-23.54
-18.16
-11.05
-3.18
4.47
11.13
16.29
19.67
21.17
20.89
19.15
16.43
13.39
10.61
8.49
7.12
6.35
5.90
5.48
4.92
4.12
3.07
1.83
0.48
-0.88
-2.20
-3.52
-5.00
-6.93
-9.59
-13.07
-17.21
-21.42
-24.81
-26.43
-25.55
-21.91
-15.88
-8.29
-0.25
7.28
13.60
18.36
21.44
22.85
22.66
21.03
18.32
15.08
11.94
9.44
7.84
7.08
6.82
6.62
6.14
5.21
3.89
2.40
0.97
-0.26
-1.33
-2.45
-3.94
-6.06
-8.97
-12.58
-16.58
-20.43
-23.47
-24.99
-24.42
-21.46
-16.28
-9.44
-1.84
5.57
11.99
16.95
20.24
21.88
22.00
20.76
18.43
15.39
12.16
9.25
7.04
5.70
5.06
4.81
4.57
4.06
3.18
2.00
0.67
-0.62
-1.80
-2.95
-4.25
-5.95
-8.27
-11.31
-15.00
-18.98
-22.71
-25.42
-26.38
-25.07
-21.33
-15.52
-8.38
-0.88
6.09
11.87
16.10
18.64
19.51
18.82
16.80
13.85
10.53
7.44
5.02
3.49
2.71
2.34
2.01
1.46
0.63
-0.35
-1.31
-2.07
-2.62
-3.13
-3.89
-5.24
-7.43
-10.54
-14.45
-18.76
-22.87
-26.00
-27.35
-26.30
-22.62
-16.58
-8.96
-0.79
6.90
13.31
17.97
20.75
21.70
20.98
18.85
15.76
12.24
8.92
6.29
4.61
3.82
3.60
3.49
3.13
2.30
1.04
-0.48
-2.03
-3.43
-4.65
-5.82
-7.17
-9.04
-11.69
-15.26
-19.61
-24.18
-28.10
-30.30
-29.89
-26.45
-20.19
-11.98
-2.98
5.66
13.04
18.66
22.35
24.15
24.22
22.85
20.40
17.32
14.12
11.25
9.02
7.57
6.83
6.55
6.37
5.98
5.18
3.96
2.49
0.98
-0.43
-1.79
-3.28
-5.17
-7.69
-10.97
-14.97
-19.46
-23.97
-27.83
-30.18
-30.25
-27.55
-22.15
-14.64
-6.02
2.63
10.40
16.72
21.38
24.41
25.90
25.96
24.74
22.46
19.45
16.21
13.25
11.01
9.65
9.07
8.93
8.77
8.25
7.27
5.96
4.56
3.24
2.00
0.70
-0.87
-2.89
-5.43
-8.53
-12.17
-16.30
-20.66
-24.78
-27.89
-29.15
-27.83
-23.67
-16.95
-8.52
0.44
8.77
15.62
20.56
23.60
25.01
25.10
24.08
22.12
19.37
16.13
12.80
9.85
7.62
6.23
5.56
5.30
5.14
4.83
4.26
3.41
2.34
1.09
-0.33
-1.95
-3.84
-6.11
-8.84
-12.10
-15.86
-19.96
-24.01
-27.38
-29.25
-28.81
-25.64
-19.84
-12.13
-3.60
4.61
11.68
17.18
21.06
23.35
24.08
23.21
20.84
17.29
13.17
9.24
6.15
4.23
3.42
3.36
3.56
3.62
3.34
2.68
1.76
0.64
-0.65
-2.14
-3.86
-5.89
-8.29
-11.16
-14.56
-18.46
-22.50
-26.05
-28.24
-28.23
-25.52
-20.16
-12.76
-4.31
4.13
11.65
17.70
21.99
24.45
25.14
24.16
21.72
18.17
14.02
9.90
6.46
4.16
3.18
3.31
4.02
4.67
4.77
4.10
2.78
1.07
-0.74
-2.57
-4.53
-6.86
-9.78
-13.40
-17.63
-22.15
-26.46
-29.88
-31.70
-31.25
-28.20
-22.58
-14.94
-6.16
2.76
10.91
17.65
22.68
25.88
27.27
26.89
24.85
21.43
17.13
12.71
8.97
6.53
5.54
5.67
6.21
6.46
5.95
4.62
2.75
0.76
-1.06
-2.64
-4.12
-5.79
-7.92
-10.73
-14.33
-18.63
-23.25
-27.47
-30.33
-30.87
-28.38
-22.81
-14.72
-5.25
4.33
12.90
19.78
24.70
27.68
28.86
28.39
26.46
23.40
19.69
15.96
12.79
10.54
9.28
8.78
8.61
8.36
7.70
6.53
4.91
3.06
1.20
-0.51
-2.09
-3.70
-5.62
-8.11
-11.32
-15.25
-19.72
-24.34
-28.52
-31.49
-32.36
-30.40
-25.32
-17.45
-7.77
2.36
11.61
18.96
23.95
26.61
27.28
26.40
24.39
21.62
18.42
15.16
12.20
9.90
8.45
7.85
7.84
8.00
7.85
7.08
5.64
3.78
1.88
0.24
-1.09
-2.30
-3.77
-5.84
-8.73
-12.48
-16.92
-21.68
-26.19
-29.69
-31.31
-30.36
-26.48
-19.90
-11.38
-2.00
7.05
14.78
20.58
24.19
25.63
25.14
23.06
19.83
15.97
12.01
8.51
5.86
4.27
3.69
3.80
4.12
4.21
3.84
3.05
2.02
1.01
0.08
-0.92
-2.30
-4.41
-7.46
-11.43
-16.11
-21.04
-25.62
-29.05
-30.56
-29.50
-25.62
-19.20
-11.00
-2.11
6.36
13.59
19.14
22.91
25.01
25.64
24.91
22.91
19.85
16.05
12.02
8.31
5.34
3.31
2.13
1.49
1.05
0.53
-0.17
-1.05
-2.06
-3.23
-4.63
-6.38
-8.65
-11.59
-15.29
-19.71
-24.48
-28.95
-32.16
-33.16
-31.23
-26.23
-18.67
-9.62
-0.31
8.15
15.11
20.35
23.92
25.98
26.57
25.67
23.38
20.00
16.12
12.40
9.41
7.37
6.18
5.46
4.83
4.01
2.92
1.64
0.33
-0.84
-1.82
-2.75
-3.91
-5.73
-8.61
-12.73
-17.94
-23.62
-28.82
-32.41
-33.37
-31.03
-25.34
-16.88
-6.79
3.54
12.80
20.13
25.18
28.02
28.91
28.13
25.90
22.51
18.43
14.29
10.76
8.30
7.01
6.58
6.47
6.15
5.35
4.09
2.67
1.39
0.38
-0.47
-1.52
-3.17
-5.72
-9.29
-13.71
-18.63
-23.44
-27.43
-29.77
-29.73
-26.86
-21.22
-13.40
-4.44
4.53
12.58
19.18
24.14
27.44
29.04
28.86
26.89
23.41
19.00
14.49
10.66
8.00
6.57
6.13
6.23
6.42
6.40
6.01
5.18
3.91
2.23
0.19
-2.15
-4.75
-7.61
-10.73
-14.14
-17.78
-21.41
-24.58
-26.61
-26.73
-24.35
-19.35
-12.19
-3.79
4.71
12.37
18.60
23.17
26.04
27.18
26.52
24.11
20.28
15.72
11.23
7.51
4.86
3.18
2.10
1.20
0.22
-0.89
-2.08
-3.28
-4.51
-5.90
-7.61
-9.82
-12.66
-16.22
-20.42
-24.96
-29.22
-32.33
-33.35
-31.57
-26.81
-19.51
-10.64
-1.40
7.07
13.99
18.94
21.83
22.73
21.87
19.56
16.25
12.50
8.88
5.84
3.61
2.18
1.34
0.81
0.31
-0.35
-1.18
-2.13
-3.08
-3.96
-4.86
-6.04
-7.88
-10.68
-14.52
-19.06
-23.61
-27.22
-29.01
-28.34
-25.04
-19.35
-11.89
-3.48
5.00
12.74
19.07
23.55
25.99
26.42
25.08
22.36
18.79
14.91
11.28
8.34
6.36
5.30
4.87
4.64
4.20
3.30
1.93
0.25
-1.54
-3.32
-5.18
-7.35
-10.15
-13.73
-17.99
-22.46
-26.40
-28.92
-29.24
-26.92
-21.98
-14.94
-6.69
1.75
9.50
15.96
20.87
24.21
26.04
26.37
25.24
22.79
19.40
15.69
12.28
9.65
7.88
6.71
5.74
4.70
3.51
2.30
1.26
0.40
-0.40
-1.43
-2.99
-5.32
-8.61
-12.92
-18.05
-23.51
-28.44
-31.75
-32.44
-29.92
-24.25
-16.15
-6.81
2.53
10.87
17.61
22.60
25.89
27.58
27.73
26.36
23.66
20.05
16.16
12.68
10.10
8.58
7.87
7.51
7.04
6.16
4.83
3.22
1.54
-0.06
-1.58
-3.13
-4.89
-7.03
-9.70
-12.94
-16.72
-20.84
-24.85
-28.07
-29.64
-28.79
-25.08
-18.66
-10.27
-1.06
7.75
15.22
20.84
24.47
26.18
26.16
24.59
21.72
17.98
13.93
10.18
7.29
5.58
5.04
5.39
6.11
6.65
6.56
5.64
3.97
1.88
-0.34
-2.46
-4.48
-6.57
-8.94
-11.76
-15.10
-18.88
-22.80
-26.31
-28.67
-29.04
-26.83
-21.89
-14.70
-6.24
2.32
9.96
16.03
20.28
22.69
23.36
22.38
19.98
16.51
12.54
8.72
5.64
3.66
2.81
2.80
3.14
3.31
2.94
1.93
0.44
-1.24
-2.87
-4.38
-5.94
-7.83
-10.33
-13.53
-17.31
-21.30
-24.91
-27.43
-28.17
-26.60
-22.55
-16.33
-8.64
-0.42
7.40
14.15
19.41
22.97
24.71
24.61
22.78
19.57
15.57
11.50
8.01
5.51
4.08
3.54
3.49
3.48
3.15
2.32
0.98
-0.67
-2.38
-3.99
-5.56
-7.29
-9.53
-12.58
-16.53
-21.16
-25.86
-29.73
-31.75
-31.08
-27.33
-20.78
-12.32
-3.18
5.42
12.62
18.07
21.75
23.85
24.54
23.91
22.08
19.27
15.91
12.51
9.57
7.41
6.08
5.38
4.96
4.49
3.75
2.71
1.49
0.22
-1.06
-2.43
-4.09
-6.25
-9.09
-12.64
-16.85
-21.47
-26.00
-29.68
-31.60
-30.89
-27.11
-20.42
-11.65
-2.07
7.01
14.58
20.15
23.70
25.43
25.62
24.47
22.18
19.04
15.49
12.08
9.36
7.63
6.86
6.67
6.51
5.93
4.75
3.13
1.45
0.06
-0.90
-1.65
-2.60
-4.21
-6.80
-10.39
-14.77
-19.48
-23.86
-27.17
-28.63
-27.63
-23.86
-17.53
-9.30
-0.21
8.61
16.19
21.85
25.29
26.49
25.64
23.13
19.46
15.32
11.40
8.32
6.45
5.76
5.93
6.36
6.49
5.94
4.61
2.71
0.56
-1.52
-3.34
-4.85
-6.21
-7.69
-9.62
-12.28
-15.75
-19.76
-23.66
-26.49
-27.28
-25.36
-20.61
-13.55
-5.22
3.16
10.52
16.14
19.69
21.22
20.92
19.12
16.22
12.71
9.17
6.15
4.03
2.90
2.49
2.35
2.05
1.35
0.31
-0.84
-1.88
-2.79
-3.74
-5.04
-6.99
-9.77
-13.34
-17.47
-21.71
-25.38
-27.70
-27.93
-25.57
-20.62
-13.59
-5.39
2.89
10.26
16.02
19.81
21.55
21.39
19.63
16.71
13.15
9.52
6.28
3.73
1.94
0.84
0.24
-0.03
-0.13
-0.25
-0.55
-1.22
-2.40
-4.15
-6.47
-9.31
-12.65
-16.43
-20.48
-24.41
-27.59
-29.16
-28.37
-24.84
-18.74
-10.81
-2.19
5.98
12.83
17.90
21.13
22.66
22.71
21.47
19.18
16.18
12.93
9.93
7.54
5.87
4.74
3.80
2.78
1.59
0.34
-0.78
-1.68
-2.49
-3.55
-5.23
-7.79
-11.22
-15.31
-19.61
-23.52
-26.38
-27.47
-26.22
-22.38
-16.19
-8.39
0.02
8.00
14.85
20.19
23.92
26.03
26.51
25.37
22.80
19.28
15.46
12.04
9.49
7.99
7.38
7.29
7.33
7.15
6.54
5.46
4.00
2.30
0.46
-1.52
-3.80
-6.57
-9.99
-14.03
-18.40
-22.52
-25.62
-26.88
-25.69
-21.85
-15.66
-7.93
0.30
8.07
14.68
19.81
23.37
25.32
25.63
24.30
21.55
17.84
13.90
10.44
7.98
6.65
6.22
6.26
6.30
6.02
5.28
4.08
2.52
0.75
-1.09
-2.90
-4.69
-6.55
-8.72
-11.47
-14.99
-19.21
-23.72
-27.78
-30.41
-30.74
-28.26
-23.02
-15.64
-7.14
1.36
8.92
14.96
19.21
21.70
22.52
21.82
19.82
16.87
13.48
10.23
7.62
5.90
4.99
4.54
4.12
3.45
2.46
1.32
0.28
-0.49
-1.05
-1.66
-2.63
-4.27
-6.73
-10.05
-14.10
-18.61
-23.09
-26.84
-29.02
-28.85
-25.91
-20.33
-12.82
-4.47
3.61
10.58
15.99
19.76
21.95
22.61
21.81
19.71
16.68
13.27
10.11
7.73
6.31
5.70
5.46
5.06
4.16
2.67
0.77
-1.20
-2.97
-4.44
-5.73
-7.11
-8.89
-11.33
-14.55
-18.49
-22.83
-26.96
-30.07
-31.28
-29.92
-25.80
-19.31
-11.26
-2.70
5.44
12.54
18.25
22.45
25.05
25.96
25.13
22.70
19.13
15.16
11.62
9.13
7.88
7.59
7.61
7.32
6.33
4.65
2.54
0.38
-1.54
-3.15
-4.55
-5.98
-7.75
-10.17
-13.50
-17.74
-22.51
-27.03
-30.26
-31.18
-29.18
-24.21
-16.90
-8.26
0.56
8.64
15.42
20.71
24.48
26.76
27.53
26.77
24.58
21.34
17.66
14.24
11.59
9.94
9.13
8.80
8.55
8.07
7.25
6.09
4.68
3.08
1.37
-0.46
-2.45
-4.69
-7.33
-10.52
-14.34
-18.72
-23.29
-27.41
-30.18
-30.68
-28.22
-22.65
-14.47
-4.80
5.02
13.75
20.60
25.32
28.01
28.98
28.53
26.93
24.49
21.55
18.55
15.85
13.72
12.18
11.11
10.25
9.37
8.27
6.84
5.12
3.21
1.30
-0.45
-1.97
-3.34
-4.73
-6.36
-8.47
-11.22
-14.69
-18.80
-23.28
-27.58
-30.84
-32.09
-30.53
-25.82
-18.30
-8.95
0.93
10.06
17.49
22.76
25.74
26.53
25.37
22.63
18.85
14.76
11.10
8.44
7.00
6.60
6.85
7.26
7.35
6.78
5.41
3.31
0.75
-1.82
-3.98
-5.48
-6.37
-7.04
-8.03
-9.84
-12.78
-16.78
-21.43
-25.93
-29.33
-30.63
-29.15
-24.71
-17.74
-9.17
-0.13
8.32
15.35
20.42
23.26
23.84
22.35
19.28
15.32
11.29
7.91
5.62
4.52
4.32
4.53
4.64
4.31
3.43
2.13
0.67
-0.73
-1.97
-3.13
-4.42
-6.11
-8.44
-11.58
-15.60
-20.35
-25.33
-29.70
-32.38
-32.37
-29.15
-22.85
-14.33
-4.86
4.30
12.19
18.39
22.80
25.55
26.72
26.31
24.41
21.27
17.44
13.63
10.57
8.61
7.63
7.15
6.53
5.36
3.64
1.70
-0.02
-1.26
-2.10
-2.93
-4.21
-6.28
-9.24
-13.00
-17.38
-22.05
-26.54
-30.17
-32.06
-31.41
-27.78
-21.35
-12.91
-3.64
5.24
12.84
18.72
22.77
25.10
25.84
25.16
23.28
20.56
17.49
14.54
12.04
10.08
8.56
7.23
5.90
4.46
2.94
1.43
0.05
-1.16
-2.28
-3.50
-5.05
-7.23
-10.25
-14.18
-18.81
-23.65
-27.93
-30.72
-31.15
-28.71
-23.37
-15.71
-6.76
2.30
10.39
16.79
21.15
23.46
23.91
22.82
20.52
17.46
14.15
11.07
8.58
6.78
5.52
4.45
3.27
1.84
0.27
-1.20
-2.36
-3.20
-3.92
-4.84
-6.31
-8.57
-11.74
-15.74
-20.30
-24.81
-28.43
-30.22
-29.41
-25.68
-19.30
-11.12
-2.23
6.27
13.51
18.93
22.25
23.39
22.48
19.89
16.16
12.01
8.13
5.06
2.99
1.84
1.28
0.92
0.50
-0.12
-0.92
-1.86
-2.93
-4.24
-5.94
-8.22
-11.24
-15.00
-19.37
-23.89
-27.78
-30.09
-29.87
-26.57
-20.32
-11.91
-2.62
6.24
13.63
18.96
22.05
23.01
22.10
19.72
16.47
13.02
10.02
7.86
6.57
5.88
5.34
4.59
3.46
2.02
0.46
-1.05
-2.48
-3.92
-5.60
-7.79
-10.75
-14.65
-19.38
-24.55
-29.37
-32.78
-33.72
-31.45
-25.83
-17.42
-7.35
3.01
12.43
20.06
25.49
28.58
29.35
27.96
24.82
20.56
16.07
12.24
9.69
8.52
8.36
8.52
8.27
7.16
5.11
2.48
-0.24
-2.61
-4.45
-5.94
-7.55
-9.79
-13.06
-17.40
-22.35
-27.12
-30.65
-31.93
-30.19
-25.26
-17.56
-8.04
2.08
11.66
19.88
26.30
30.74
33.06
33.13
30.98
27.01
22.03
17.19
13.46
11.37
10.74
10.89
10.97
10.37
8.87
6.63
3.99
1.28
-1.31
-3.73
-6.07
-8.54
-11.43
-15.03
-19.44
-24.38
-29.10
-32.49
-33.40
-31.03
-25.25
-16.64
-6.34
4.31
14.05
21.96
27.55
30.70
31.51
30.30
27.47
23.60
19.34
15.42
12.44
10.69
10.11
10.20
10.29
9.76
8.31
6.05
3.39
0.80
-1.44
-3.36
-5.22
-7.42
-10.30
-14.05
-18.66
-23.82
-28.92
-33.06
-35.21
-34.46
-30.35
-23.08
-13.49
-2.86
7.44
16.31
23.07
27.39
29.24
28.76
26.25
22.21
17.38
12.68
8.94
6.69
5.93
6.20
6.73
6.83
6.09
4.51
2.38
0.11
-2.02
-3.92
-5.71
-7.65
-10.01
-13.07
-16.97
-21.70
-26.90
-31.82
-35.32
-36.19
-33.57
-27.25
-17.94
-6.99
4.03
13.81
21.57
27.07
30.29
31.28
30.07
26.86
22.20
17.00
12.36
9.13
7.64
7.60
8.29
8.88
8.68
7.41
5.16
2.33
-0.61
-3.24
-5.40
-7.27
-9.23
-11.72
-15.09
-19.48
-24.77
-30.52
-35.93
-39.90
-41.20
-38.84
-32.48
-22.66
-10.78
1.37
12.17
20.65
26.51
30.02
31.58
31.52
30.02
27.31
23.79
20.06
16.73
14.28
12.83
12.15
11.75
11.11
9.91
8.08
5.89
3.67
1.72
0.06
-1.51
-3.36
-5.82
-9.04
-13.05
-17.73
-22.94
-28.38
-33.52
-37.49
-39.18
-37.56
-32.13
-23.22
-11.98
-0.03
11.04
20.16
26.90
31.38
33.92
34.84
34.30
32.45
29.53
25.96
22.31
19.10
16.65
14.99
13.92
13.10
12.27
11.30
10.18
8.94
7.55
5.89
3.80
1.23
-1.76
-4.98
-8.23
-11.45
-14.75
-18.40
-22.67
-27.57
-32.76
-37.39
-40.32
-40.42
-36.91
-29.73
-19.61
-7.93
3.72
13.95
21.91
27.33
30.43
31.61
31.22
29.53
26.71
23.02
18.88
14.86
11.55
9.38
8.42
8.37
8.68
8.74
8.16
6.87
5.06
3.00
0.91
-1.19
-3.44
-5.93
-8.71
-11.76
-15.10
-18.83
-23.08
-27.76
-32.38
-36.01
-37.44
-35.63
-30.13
-21.34
-10.42
1.02
11.43
19.71
25.39
28.54
29.47
28.55
26.12
22.53
18.19
13.72
9.82
7.07
5.71
5.57
6.05
6.45
6.19
5.03
3.08
0.68
-1.81
-4.15
-6.28
-8.24
-10.16
-12.19
-14.57
-17.56
-21.39
-26.03
-30.99
-35.32
-37.75
-37.06
-32.60
-24.52
-13.87
-2.21
8.82
17.97
24.64
28.74
30.54
30.39
28.61
25.57
21.71
17.63
13.97
11.23
9.61
8.93
8.72
8.44
7.66
6.19
4.16
1.87
-0.32
-2.18
-3.73
-5.22
-7.03
-9.53
-12.96
-17.34
-22.48
-27.93
-33.02
-36.87
-38.46
-36.99
-32.09
-24.02
-13.76
-2.70
7.74
16.48
23.02
27.32
29.64
30.28
29.47
27.37
24.18
20.29
16.23
12.62
9.93
8.32
7.59
7.28
6.87
6.01
4.68
3.05
1.43
-0.03
-1.38
-2.87
-4.85
-7.62
-11.30
-15.86
-21.04
-26.32
-30.97
-34.07
-34.65
-32.03
-26.09
-17.41
-7.16
3.18
12.37
19.62
24.77
28.07
29.88
30.39
29.60
27.48
24.16
20.12
16.08
12.70
10.36
8.98
8.18
7.48
6.56
5.37
4.03
2.71
1.47
0.22
-1.23
-3.09
-5.49
-8.51
-12.16
-16.36
-20.93
-25.53
-29.59
-32.34
-32.97
-30.86
-25.80
-18.14
-8.83
0.86
9.70
16.86
22.02
25.26
26.78
26.75
25.20
22.24
18.24
13.85
9.92
7.12
5.68
5.33
5.42
5.28
4.49
3.04
1.23
-0.56
-2.10
-3.40
-4.67
-6.27
-8.49
-11.46
-15.11
-19.19
-23.27
-26.76
-28.94
-29.07
-26.66
-21.59
-14.30
-5.69
3.10
11.03
17.36
21.70
24.00
24.38
23.07
20.43
16.89
12.99
9.25
6.10
3.74
2.23
1.44
1.13
1.00
0.78
0.25
-0.68
-1.98
-3.58
-5.46
-7.78
-10.79
-14.70
-19.46
-24.65
-29.39
-32.59
-33.24
-30.75
-25.18
-17.22
-8.04
1.14
9.31
15.92
20.80
24.01
25.62
25.61
23.98
20.92
16.87
12.54
8.64
5.66
3.71
2.61
2.04
1.66
1.27
0.76
0.06
-0.92
-2.27
-4.09
-6.49
-9.53
-13.27
-17.64
-22.43
-27.14
-31.04
-33.20
-32.82
-29.44
-23.22
-14.91
-5.66
3.34
11.16
17.36
21.88
24.88
26.45
26.61
25.31
22.70
19.17
15.35
11.88
9.22
7.50
6.54
5.95
5.32
4.40
3.12
1.52
-0.27
-2.17
-4.25
-6.64
-9.54
-13.08
-17.24
-21.78
-26.20
-29.84
-31.96
-31.87
-29.17
-23.82
-16.29
-7.42
1.72
10.14
17.16
22.47
26.06
28.07
28.54
27.48
24.94
21.23
16.92
12.79
9.54
7.55
6.78
6.78
6.93
6.71
5.85
4.37
2.52
0.58
-1.27
-3.04
-4.92
-7.19
-10.09
-13.73
-18.01
-22.61
-26.89
-30.03
-31.13
-29.47
-24.76
-17.35
-8.21
1.37
10.20
17.48
22.87
26.39
28.12
28.08
26.27
22.92
18.55
13.99
10.12
7.52
6.26
5.89
5.75
5.21
4.00
2.24
0.31
-1.39
-2.67
-3.62
-4.58
-5.98
-8.10
-11.06
-14.74
-18.88
-23.07
-26.74
-29.21
-29.73
-27.74
-23.05
-16.06
-7.67
1.03
8.98
15.49
20.19
22.99
23.89
22.97
20.46
16.81
12.69
8.84
5.84
4.01
3.29
3.35
3.69
3.86
3.50
2.45
0.74
-1.43
-3.77
-5.97
-7.91
-9.67
-11.55
-14.01
-17.33
-21.49
-25.95
-29.76
-31.75
-30.99
-27.10
-20.43
-11.92
-2.75
6.02
13.65
19.77
24.20
26.77
27.38
25.98
22.81
18.44
13.73
9.53
6.59
5.18
5.11
5.77
6.38
6.25
5.05
2.89
0.18
-2.57
-5.02
-7.10
-8.97
-10.97
-13.41
-16.53
-20.40
-24.77
-29.04
-32.30
-33.51
-31.86
-27.13
-19.79
-10.81
-1.40
7.41
14.94
20.86
25.00
27.30
27.71
26.34
23.50
19.81
16.00
12.75
10.49
9.22
8.58
8.01
7.01
5.42
3.39
1.37
-0.27
-1.39
-2.20
-3.06
-4.38
-6.43
-9.33
-13.07
-17.51
-22.29
-26.75
-29.91
-30.74
-28.54
-23.24
-15.43
-6.21
3.23
11.88
19.10
24.51
27.92
29.24
28.46
25.86
21.98
17.61
13.60
10.62
9.00
8.54
8.71
8.83
8.33
6.98
4.95
2.60
0.32
-1.72
-3.51
-5.21
-7.03
-9.17
-11.84
-15.19
-19.22
-23.62
-27.72
-30.54
-31.09
-28.71
-23.31
-15.43
-6.10
3.47
12.17
19.17
24.00
26.50
26.72
24.95
21.64
17.36
12.88
8.98
6.24
4.91
4.74
5.09
5.21
4.55
2.96
0.73
-1.61
-3.63
-5.17
-6.41
-7.79
-9.74
-12.55
-16.25
-20.56
-24.99
-28.86
-31.41
-31.90
-29.79
-24.90
-17.50
-8.37
1.37
10.49
17.92
23.04
25.66
26.01
24.49
21.62
17.97
14.13
10.73
8.23
6.79
6.17
5.81
5.12
3.73
1.66
-0.73
-2.96
-4.71
-5.89
-6.71
-7.56
-8.92
-11.25
-14.86
-19.68
-25.18
-30.35
-33.87
-34.58
-31.85
-25.80
-17.30
-7.63
1.92
10.39
17.23
22.24
25.38
26.65
26.11
23.94
20.52
16.56
12.87
10.11
8.56
8.01
7.80
7.21
5.76
3.42
0.60
-2.06
-4.06
-5.21
-5.77
-6.33
-7.60
-10.13
-14.11
-19.25
-24.75
-29.51
-32.41
-32.56
-29.59
-23.60
-15.22
-5.41
4.72
14.08
21.76
27.17
30.09
30.64
29.24
26.47
22.98
19.43
16.40
14.26
13.11
12.71
12.53
11.99
10.70
8.61
6.02
3.37
1.04
-0.81
-2.29
-3.67
-5.31
-7.56
-10.69
-14.82
-19.79
-25.02
-29.55
-32.22
-31.99
-28.28
-21.26
-11.83
-1.36
8.72
17.26
23.65
27.78
29.84
30.11
28.84
26.30
22.87
19.15
15.79
13.35
12.07
11.73
11.80
11.64
10.81
9.20
6.99
4.51
2.10
-0.12
-2.23
-4.47
-7.18
-10.64
-14.97
-20.08
-25.61
-30.90
-35.03
-37.03
-36.05
-31.66
-24.11
-14.33
-3.65
6.48
14.93
21.08
24.77
26.15
25.49
23.16
19.69
15.79
12.22
9.56
7.99
7.26
6.83
6.16
4.96
3.26
1.29
-0.66
-2.40
-3.90
-5.25
-6.64
-8.30
-10.53
-13.59
-17.55
-22.17
-26.79
-30.45
-32.13
-30.97
-26.65
-19.46
-10.29
-0.40
8.93
16.65
22.15
25.29
26.24
25.35
23.04
19.80
16.14
12.62
9.66
7.50
6.04
4.97
3.89
2.53
0.83
-1.08
-3.00
-4.77
-6.38
-8.01
-9.94
-12.53
-16.05
-20.51
-25.59
-30.53
-34.24
-35.67
-34.08
-29.33
-21.93
-12.91
-3.45
5.40
12.87
18.54
22.17
23.73
23.31
21.21
17.96
14.26
10.77
7.95
5.88
4.28
2.75
0.99
-1.06
-3.16
-4.96
-6.20
-6.84
-7.12
-7.51
-8.57
-10.83
-14.58
-19.70
-25.53
-30.92
-34.45
-34.90
-31.63
-24.87
-15.60
-5.17
5.05
14.08
21.41
26.85
30.35
31.87
31.41
29.11
25.39
20.95
16.65
13.27
11.23
10.48
10.51
10.59
10.11
8.80
6.82
4.56
2.40
0.48
-1.32
-3.30
-5.78
-8.95
-12.87
-17.42
-22.26
-26.76
-30.03
-31.04
-28.96
-23.49
-15.05
-4.69
6.24
16.47
25.08
31.59
35.87
37.93
37.88
35.94
32.49
28.12
23.53
19.43
16.32
14.42
13.61
13.50
13.64
13.62
13.19
12.35
11.21
9.91
8.48
6.76
4.47
1.40
-2.48
-6.91
-11.41
-15.51
-18.94
-21.68
-24.03
-26.34
-28.92
-31.97
-35.58
-39.79
-44.49
-49.27
-53.31
-55.42
-54.30
-49.09
-39.75
-27.16
-12.87
1.40
14.25
24.83
32.76
37.96
40.44
40.29
37.86
33.80
29.03
24.49
20.95
18.75
17.76
17.52
17.47
17.15
16.37
15.24
13.97
12.72
11.39
9.67
7.22
3.89
-0.12
-4.28
-8.09
-11.27
-13.93
-16.49
-19.46
-23.21
-27.91
-33.47
-39.54
-45.44
-50.08
-52.17
-50.40
-44.07
-33.39
-19.60
-4.60
9.59
21.45
30.27
36.08
39.34
40.54
40.02
37.97
34.61
30.30
25.59
21.09
17.26
14.35
12.39
11.24
10.75
10.69
10.80
10.71
10.06
8.56
6.10
2.78
-1.10
-5.23
-9.32
-13.17
-16.72
-20.11
-23.67
-27.81
-32.81
-38.50
-44.04
-48.06
-49.00
-45.67
-37.78
-26.03
-11.98
2.48
15.68
26.46
34.32
39.27
41.57
41.62
39.81
36.57
32.35
27.69
23.12
19.12
15.99
13.78
12.39
11.58
11.06
10.61
10.02
9.14
7.81
5.93
3.46
0.48
-2.81
-6.20
-9.52
-12.74
-16.02
-19.68
-24.08
-29.44
-35.54
-41.55
-46.07
-47.56
-44.81
-37.47
-26.21
-12.54
1.75
15.00
26.10
34.48
40.01
42.83
43.26
41.73
38.72
34.78
30.30
25.62
21.02
16.78
13.16
10.38
8.49
7.39
6.86
6.58
6.28
5.66
4.53
2.72
0.23
-2.82
-6.25
-9.85
-13.57
-17.44
-21.59
-26.13
-31.02
-35.79
-39.60
-41.30
-39.70
-34.14
-24.74
-12.56
0.72
13.34
23.96
31.93
37.19
39.96
40.44
38.79
35.21
30.16
24.35
18.67
13.87
10.41
8.38
7.53
7.38
7.42
7.18
6.35
4.84
2.78
0.42
-2.00
-4.29
-6.38
-8.31
-10.24
-12.46
-15.29
-19.03
-23.73
-28.91
-33.64
-36.65
-36.74
-33.20
-26.03
-16.02
-4.45
7.20
17.58
25.71
31.04
33.40
33.01
30.35
26.04
20.79
15.33
10.27
6.07
2.99
1.04
0.01
-0.45
-0.73
-1.16
-1.85
-2.75
-3.68
-4.43
-4.98
-5.52
-6.48
-8.34
-11.45
-15.82
-21.04
-26.26
-30.44
-32.51
-31.72
-27.76
-20.89
-11.89
-1.86
8.06
16.84
23.80
28.53
30.91
30.96
28.88
25.08
20.15
14.88
10.01
6.13
3.48
1.89
0.95
0.19
-0.74
-1.96
-3.39
-4.79
-5.97
-6.82
-7.46
-8.18
-9.41
-11.61
-15.06
-19.74
-25.20
-30.54
-34.62
-36.32
-34.76
-29.67
-21.40
-10.97
0.28
10.96
19.93
26.56
30.60
32.18
31.52
28.97
24.98
20.12
15.10
10.59
7.08
4.70
3.30
2.45
1.75
0.89
-0.18
-1.40
-2.55
-3.49
-4.21
-4.89
-5.89
-7.67
-10.59
-14.80
-20.00
-25.50
-30.20
-32.92
-32.64
-28.86
-21.79
-12.28
-1.68
8.59
17.42
24.15
28.61
30.88
31.18
29.70
26.71
22.59
17.96
13.52
9.84
7.26
5.71
4.82
4.14
3.33
2.28
1.10
-0.01
-0.92
-1.67
-2.50
-3.72
-5.60
-8.34
-11.91
-16.16
-20.73
-24.98
-28.16
-29.39
-28.00
-23.70
-16.74
-7.93
1.62
10.75
18.51
24.32
28.00
29.58
29.31
27.45
24.36
20.44
16.21
12.19
8.86
6.52
5.17
4.55
4.25
3.87
3.10
1.81
0.06
-1.96
-3.97
-5.72
-7.10
-8.18
-9.28
-10.78
-13.07
-16.29
-20.32
-24.73
-28.78
-31.57
-32.20
-29.94
-24.54
-16.39
-6.50
3.74
12.94
20.08
24.71
26.80
26.58
24.42
20.72
16.06
11.13
6.74
3.52
1.78
1.41
1.91
2.67
3.09
2.78
1.68
-0.00
-1.92
-3.68
-5.08
-6.16
-7.18
-8.49
-10.42
-13.11
-16.51
-20.29
-23.84
-26.30
-26.77
-24.54
-19.44
-11.90
-2.95
6.18
14.34
20.78
25.03
26.95
26.58
24.16
20.17
15.36
10.58
6.57
3.78
2.31
1.90
2.19
2.68
2.94
2.65
1.70
0.16
-1.69
-3.52
-5.11
-6.39
-7.52
-8.77
-10.46
-12.92
-16.31
-20.54
-25.05
-28.89
-30.85
-29.88
-25.54
-18.17
-8.85
0.97
9.98
17.19
22.16
24.86
25.49
24.41
22.03
18.82
15.23
11.72
8.71
6.46
5.12
4.52
4.36
4.19
3.65
2.58
1.13
-0.42
-1.78
-2.82
-3.66
-4.59
-5.89
-7.82
-10.50
-13.90
-17.84
-21.95
-25.60
-27.99
-28.34
-26.08
-21.09
-13.83
-5.23
3.47
11.11
16.91
20.63
22.46
22.86
22.26
20.93
18.98
16.49
13.66
10.84
8.40
6.61
5.49
4.82
4.28
3.61
2.68
1.55
0.36
-0.71
-1.58
-2.33
-3.23
-4.57
-6.62
-9.46
-13.00
-16.98
-21.01
-24.62
-27.26
-28.29
-27.12
-23.39
-17.22
-9.29
-0.69
7.43
14.16
19.07
22.20
23.78
24.06
23.17
21.19
18.31
14.88
11.41
8.44
6.33
5.17
4.80
4.85
4.93
4.73
4.08
3.01
1.64
0.11
-1.45
-3.03
-4.64
-6.36
-8.28
-10.48
-13.03
-15.92
-18.98
-21.83
-23.87
-24.42
-22.95
-19.28
-13.72
-6.94
0.18
6.85
12.46
16.70
19.40
20.54
20.17
18.44
15.63
12.17
8.57
5.32
2.79
1.14
0.31
0.11
0.25
0.47
0.58
0.45
0.05
-0.60
-1.48
-2.60
-3.99
-5.75
-8.02
-10.91
-14.39
-18.19
-21.79
-24.45
-25.42
-24.16
-20.51
-14.80
-7.72
-0.20
6.90
12.91
17.43
20.32
21.58
21.30
19.66
16.92
13.47
9.83
6.55
4.10
2.67
2.16
2.20
2.35
2.20
1.54
0.39
-1.10
-2.71
-4.25
-5.65
-6.96
-8.33
-9.99
-12.12
-14.81
-17.94
-21.14
-23.80
-25.18
-24.56
-21.55
-16.22
-9.16
-1.30
6.33
12.93
18.06
21.58
23.51
23.84
22.55
19.81
15.99
11.82
8.12
5.51
4.19
3.94
4.17
4.32
3.88
2.68
0.77
-1.56
-3.98
-6.17
-7.98
-9.49
-10.95
-12.73
-15.11
-18.12
-21.54
-24.80
-27.16
-27.80
-26.11
-21.82
-15.22
-7.10
1.45
9.29
15.62
19.99
22.35
22.80
21.60
19.10
15.75
12.19
9.05
6.83
5.69
5.46
5.66
5.80
5.43
4.35
2.67
0.69
-1.22
-2.71
-3.63
-4.12
-4.50
-5.24
-6.74
-9.26
-12.81
-17.07
-21.36
-24.68
-25.97
-24.41
-19.78
-12.59
-3.92
4.87
12.62
18.62
22.51
24.26
23.99
21.94
18.59
14.62
10.83
7.88
6.13
5.53
5.75
6.29
6.63
6.35
5.27
3.42
1.12
-1.20
-3.17
-4.61
-5.65
-6.63
-7.94
-9.81
-12.33
-15.37
-18.61
-21.55
-23.51
-23.76
-21.73
-17.27
-10.80
-3.19
4.46
11.17
16.24
19.32
20.38
19.63
17.47
14.43
11.14
8.12
5.73
4.10
3.15
2.64
2.25
1.67
0.71
-0.63
-2.14
-3.49
-4.35
-4.66
-4.61
-4.69
-5.44
-7.27
-10.33
-14.38
-18.78
-22.57
-24.72
-24.37
-21.16
-15.34
-7.76
0.43
8.08
14.33
18.65
20.82
20.92
19.26
16.37
12.97
9.75
7.25
5.63
4.76
4.33
4.03
3.54
2.67
1.33
-0.40
-2.30
-3.99
-5.17
-5.76
-6.01
-6.44
-7.62
-9.91
-13.35
-17.55
-21.75
-25.01
-26.42
-25.29
-21.47
-15.32
-7.68
0.40
7.97
14.39
19.24
22.29
23.41
22.58
20.02
16.28
12.19
8.60
6.15
5.03
5.00
5.53
5.93
5.67
4.53
2.59
0.23
-2.05
-3.88
-5.15
-6.09
-7.17
-8.91
-11.64
-15.37
-19.67
-23.73
-26.52
-27.04
-24.64
-19.28
-11.60
-2.79
5.81
13.08
18.38
21.57
22.78
22.30
20.41
17.50
14.08
10.80
8.25
6.73
6.14
6.05
5.91
5.32
4.22
2.81
1.45
0.35
-0.44
-1.10
-1.94
-3.27
-5.34
-8.29
-12.05
-16.34
-20.59
-23.97
-25.58
-24.72
-21.09
-15.04
-7.40
0.73
8.32
14.64
19.34
22.31
23.55
23.13
21.21
18.14
14.44
10.81
7.82
5.81
4.75
4.34
4.20
4.00
3.55
2.82
1.89
0.84
-0.27
-1.48
-2.91
-4.76
-7.24
-10.49
-14.38
-18.50
-22.15
-24.52
-24.89
-22.89
-18.57
-12.44
-5.29
2.01
8.68
14.13
17.99
20.08
20.41
19.14
16.67
13.50
10.20
7.27
5.05
3.63
2.87
2.47
2.05
1.35
0.22
-1.24
-2.79
-4.16
-5.17
-5.89
-6.62
-7.81
-9.87
-12.90
-16.61
-20.29
-23.03
-23.94
-22.47
-18.54
-12.57
-5.35
2.19
9.16
14.86
18.89
21.11
21.53
20.31
17.75
14.26
10.37
6.65
3.62
1.55
0.44
0.05
0.05
0.14
0.13
-0.04
-0.44
-1.13
-2.25
-3.93
-6.31
-9.42
-13.24
-17.56
-21.94
-25.71
-28.03
-28.12
-25.53
-20.30
-13.03
-4.71
3.60
10.97
16.83
20.89
23.13
23.69
22.77
20.66
17.69
14.32
11.04
8.33
6.46
5.47
5.09
4.89
4.45
3.54
2.16
0.48
-1.25
-2.92
-4.58
-6.43
-8.73
-11.68
-15.30
-19.39
-23.38
-26.52
-27.92
-26.91
-23.18
-17.00
-9.12
-0.59
7.59
14.59
19.95
23.48
25.17
25.11
23.49
20.66
17.13
13.57
10.61
8.68
7.83
7.74
7.88
7.72
6.96
5.56
3.71
1.61
-0.53
-2.65
-4.78
-7.02
-9.53
-12.49
-16.02
-20.02
-24.08
-27.39
-28.95
-27.94
-23.98
-17.37
-9.02
-0.08
8.34
15.49
21.01
24.80
26.89
27.34
26.21
23.71
20.21
16.32
12.70
9.94
8.32
7.76
7.85
8.03
7.81
6.93
5.38
3.40
1.32
-0.63
-2.37
-4.02
-5.87
-8.26
-11.46
-15.50
-20.09
-24.54
-27.96
-29.41
-28.21
-24.15
-17.57
-9.26
-0.27
8.35
15.75
21.39
25.03
26.69
26.49
24.67
21.59
17.72
13.68
10.15
7.66
6.43
6.29
6.72
7.12
7.01
6.22
4.85
3.16
1.38
-0.38
-2.20
-4.25
-6.70
-9.69
-13.30
-17.44
-21.79
-25.76
-28.56
-29.31
-27.39
-22.67
-15.61
-7.16
1.56
9.57
16.21
21.19
24.41
25.82
25.38
23.16
19.55
15.18
10.94
7.55
5.43
4.51
4.30
4.22
3.77
2.82
1.54
0.28
-0.68
-1.30
-1.86
-2.81
-4.62
-7.57
-11.67
-16.66
-22.03
-27.02
-30.75
-32.28
-30.84
-26.14
-18.52
-8.98
1.10
10.31
17.69
22.81
25.69
26.56
25.63
23.11
19.35
14.91
10.59
7.20
5.24
4.70
5.07
5.59
5.62
4.86
3.39
1.51
-0.45
-2.32
-4.09
-5.88
-7.85
-10.19
-13.08
-16.62
-20.73
-24.95
-28.49
-30.34
-29.59
-25.81
-19.21
-10.62
-1.19
7.93
15.90
22.18
26.54
28.81
28.92
26.90
23.11
18.22
13.22
9.09
6.48
5.52
5.77
6.49
6.92
6.58
5.37
3.52
1.43
-0.62
-2.49
-4.28
-6.25
-8.69
-11.89
-15.93
-20.63
-25.44
-29.49
-31.72
-31.23
-27.49
-20.63
-11.40
-1.05
9.06
17.74
24.24
28.23
29.76
29.12
26.70
23.04
18.73
14.50
11.02
8.72
7.70
7.63
7.90
7.92
7.25
5.83
3.87
1.79
-0.09
-1.65
-2.98
-4.46
-6.53
-9.61
-13.89
-19.16
-24.78
-29.71
-32.76
-32.90
-29.64
-23.14
-14.22
-4.09
5.99
14.99
22.25
27.47
30.54
31.42
30.14
26.94
22.33
17.10
12.22
8.46
6.21
5.33
5.27
5.40
5.23
4.57
3.54
2.34
1.11
-0.15
-1.57
-3.36
-5.73
-8.82
-12.69
-17.29
-22.33
-27.23
-31.09
-32.88
-31.74
-27.28
-19.83
-10.37
-0.25
9.22
17.12
22.99
26.69
28.21
27.57
24.90
20.60
15.42
10.37
6.39
3.96
2.98
2.88
2.88
2.43
1.36
-0.12
-1.63
-2.91
-3.92
-4.89
-6.20
-8.25
-11.31
-15.44
-20.41
-25.65
-30.29
-33.24
-33.48
-30.35
-23.82
-14.59
-3.93
6.64
15.77
22.58
26.73
28.28
27.50
24.79
20.60
15.56
10.48
6.18
3.25
1.84
1.55
1.67
1.51
0.74
-0.58
-2.05
-3.34
-4.36
-5.34
-6.72
-8.92
-12.20
-16.57
-21.72
-27.07
-31.71
-34.57
-34.61
-31.20
-24.40
-15.00
-4.35
6.09
15.08
21.91
26.31
28.33
28.14
25.99
22.30
17.68
12.93
8.83
5.88
4.17
3.37
2.98
2.49
1.68
0.50
-0.92
-2.51
-4.26
-6.30
-8.84
-12.14
-16.43
-21.80
-27.99
-34.29
-39.50
-42.23
-41.41
-36.66
-28.53
-18.37
-7.74
1.95
9.87
15.66
19.25
20.61
19.73
16.73
12.04
6.41
0.75
-4.12
-7.77
-10.18
-11.68
-12.70
-13.54
-14.28
-14.71
-14.56
-13.61
-11.88
-9.66
-7.43
-5.75
-5.13
-5.88
-7.96
-10.92
-13.83
-15.46
-14.61
-10.49
-3.09
6.74
17.61
28.00
36.80
43.42
47.74
49.84
49.75
47.50
43.26
37.54
31.20
25.28
20.66
17.79
16.60
16.51
16.69
16.36
15.05
12.69
9.59
6.25
3.05
0.13
-2.67
-5.68
-9.22
-13.47
-18.42
-23.81
-29.08
-33.35
-35.53
-34.61
-30.02
-21.94
-11.34
0.33
11.56
21.15
28.43
33.12
35.18
34.74
32.08
27.73
22.50
17.32
13.02
10.15
8.80
8.66
9.13
9.56
9.38
8.33
6.48
4.15
1.76
-0.42
-2.38
-4.41
-6.97
-10.46
-15.08
-20.66
-26.66
-32.21
-36.22
-37.65
-35.74
-30.29
-21.81
-11.35
-0.29
10.06
18.69
25.05
28.92
30.35
29.49
26.65
22.35
17.31
12.37
8.34
5.74
4.64
4.69
5.24
5.55
5.14
3.88
2.00
-0.08
-2.03
-3.75
-5.44
-7.52
-10.39
-14.35
-19.38
-25.15
-30.96
-35.79
-38.48
-37.98
-33.71
-25.87
-15.38
-3.73
7.53
17.14
24.42
29.21
31.66
31.93
30.18
26.64
21.78
16.39
11.46
7.83
5.93
5.56
6.03
6.48
6.23
5.05
3.11
0.82
-1.43
-3.45
-5.28
-7.14
-9.30
-12.10
-15.79
-20.56
-26.27
-32.35
-37.71
-40.98
-40.82
-36.52
-28.21
-16.96
-4.41
7.71
18.07
25.92
31.05
33.63
33.89
32.07
28.54
23.81
18.73
14.23
11.10
9.65
9.57
10.09
10.29
9.52
7.67
5.11
2.42
0.06
-1.81
-3.40
-5.05
-7.13
-9.90
-13.59
-18.27
-23.84
-29.81
-35.18
-38.63
-38.83
-34.96
-27.09
-16.25
-4.05
7.74
17.80
25.45
30.55
33.30
33.94
32.66
29.68
25.43
20.57
15.95
12.30
10.01
9.03
8.88
8.91
8.59
7.64
6.10
4.22
2.33
0.61
-0.93
-2.49
-4.45
-7.19
-11.01
-16.02
-22.02
-28.45
-34.34
-38.47
-39.62
-36.99
-30.45
-20.71
-9.14
2.62
13.16
21.58
27.58
31.23
32.76
32.33
30.10
26.38
21.74
16.98
12.95
10.28
9.11
9.10
9.55
9.71
9.05
7.46
5.18
2.64
0.24
-1.83
-3.65
-5.50
-7.71
-10.57
-14.24
-18.73
-23.86
-29.12
-33.66
-36.36
-36.14
-32.29
-24.85
-14.72
-3.42
7.42
16.52
23.22
27.45
29.43
29.41
27.60
24.20
19.63
14.57
9.90
6.37
4.39
3.84
4.14
4.52
4.33
3.35
1.79
0.10
-1.35
-2.47
-3.56
-5.14
-7.64
-11.28
-15.96
-21.32
-26.83
-31.74
-35.15
-36.13
-33.95
-28.41
-20.03
-9.96
0.40
9.77
17.35
22.84
26.25
27.69
27.27
25.14
21.60
17.21
12.72
8.83
6.00
4.28
3.37
2.78
2.06
1.07
-0.09
-1.20
-2.11
-2.89
-3.86
-5.39
-7.81
-11.27
-15.77
-21.09
-26.81
-32.17
-36.12
-37.49
-35.39
-29.54
-20.54
-9.68
1.42
11.33
19.15
24.54
27.63
28.68
27.98
25.77
22.34
18.14
13.75
9.81
6.81
4.93
3.96
3.44
2.83
1.84
0.44
-1.09
-2.49
-3.68
-4.90
-6.61
-9.30
-13.25
-18.40
-24.31
-30.20
-35.04
-37.75
-37.40
-33.52
-26.28
-16.54
-5.65
4.95
14.18
21.41
26.46
29.34
30.17
29.05
26.27
22.31
17.92
13.84
10.65
8.52
7.24
6.36
5.41
4.13
2.51
0.74
-0.93
-2.38
-3.68
-5.08
-6.96
-9.69
-13.51
-18.46
-24.21
-29.97
-34.54
-36.57
-34.96
-29.37
-20.39
-9.42
1.79
11.73
19.53
24.94
28.15
29.38
28.83
26.67
23.27
19.25
15.37
12.30
10.36
9.39
8.90
8.33
7.26
5.62
3.64
1.74
0.24
-0.82
-1.69
-2.88
-4.91
-8.15
-12.67
-18.17
-24.02
-29.34
-33.05
-34.14
-31.89
-26.19
-17.60
-7.31
3.20
12.59
19.94
24.89
27.50
28.04
26.87
24.32
20.81
16.84
12.98
9.76
7.48
6.15
5.48
5.04
4.42
3.40
2.03
0.50
-0.98
-2.31
-3.59
-5.12
-7.25
-10.26
-14.24
-19.01
-24.05
-28.54
-31.51
-32.02
-29.48
-23.89
-15.87
-6.51
2.88
11.19
17.66
21.98
24.16
24.38
22.88
19.99
16.17
12.05
8.32
5.51
3.85
3.14
2.95
2.73
2.13
1.03
-0.41
-1.97
-3.51
-5.01
-6.66
-8.72
-11.43
-14.91
-19.12
-23.75
-28.14
-31.42
-32.59
-30.90
-26.07
-18.48
-9.11
0.74
9.81
17.17
22.32
25.20
25.94
24.82
22.20
18.52
14.37
10.38
7.13
4.95
3.86
3.50
3.37
2.98
2.08
0.72
-0.82
-2.24
-3.42
-4.51
-5.91
-8.09
-11.45
-16.05
-21.57
-27.20
-31.81
-34.15
-33.22
-28.60
-20.73
-10.76
-0.23
9.39
17.12
22.57
25.87
27.30
27.15
25.64
23.08
19.94
16.81
14.23
12.45
11.29
10.32
9.08
7.39
5.38
3.37
1.64
0.30
-0.76
-1.81
-3.17
-5.10
-7.85
-11.59
-16.32
-21.72
-27.07
-31.31
-33.28
-32.05
-27.28
-19.45
-9.64
0.63
9.99
17.48
22.79
26.09
27.82
28.33
27.74
26.02
23.21
19.61
15.80
12.52
10.35
9.43
9.43
9.65
9.42
8.30
6.27
3.72
1.17
-0.99
-2.66
-4.04
-5.49
-7.39
-10.00
-13.42
-17.57
-22.22
-26.91
-30.90
-33.26
-33.07
-29.72
-23.18
-14.08
-3.63
6.73
15.78
22.72
27.26
29.52
29.83
28.56
26.10
22.88
19.42
16.22
13.69
12.04
11.24
11.07
11.19
11.27
11.02
10.27
8.94
7.05
4.71
2.10
-0.59
-3.20
-5.64
-7.89
-10.00
-12.16
-14.60
-17.61
-21.33
-25.59
-29.74
-32.79
-33.58
-31.29
-25.71
-17.43
-7.63
2.25
11.00
17.84
22.56
25.25
26.18
25.58
23.70
20.82
17.36
13.84
10.79
8.60
7.44
7.26
7.74
8.44
8.87
8.64
7.54
5.64
3.19
0.57
-1.95
-4.24
-6.32
-8.27
-10.25
-12.38
-14.83
-17.79
-21.34
-25.23
-28.83
-31.10
-30.99
-27.81
-21.53
-12.92
-3.22
6.12
13.99
19.71
23.14
24.49
24.10
22.33
19.55
16.12
12.54
9.35
7.03
5.83
5.67
6.14
6.67
6.71
5.96
4.46
2.50
0.42
-1.52
-3.29
-5.04
-7.02
-9.42
-12.33
-15.70
-19.40
-23.25
-26.93
-29.95
-31.61
-31.14
-27.94
-21.95
-13.78
-4.64
4.11
11.35
16.56
19.84
21.60
22.24
21.96
20.73
18.50
15.43
11.95
8.69
6.22
4.87
4.57
4.90
5.25
5.06
4.05
2.34
0.34
-1.47
-2.84
-3.91
-5.10
-6.90
-9.59
-13.13
-17.19
-21.37
-25.28
-28.50
-30.55
-30.82
-28.76
-24.07
-16.97
-8.28
0.86
9.26
16.04
20.82
23.63
24.74
24.48
23.15
20.98
18.21
15.19
12.33
10.01
8.47
7.69
7.42
7.18
6.51
5.11
3.00
0.46
-2.02
-4.01
-5.35
-6.22
-7.04
-8.34
-10.51
-13.71
-17.84
-22.52
-27.06
-30.53
-31.93
-30.40
-25.62
-17.96
-8.49
1.36
10.24
17.25
21.99
24.53
25.16
24.27
22.27
19.63
16.83
14.31
12.34
10.98
10.11
9.58
9.24
8.97
8.62
7.99
6.92
5.30
3.20
0.88
-1.38
-3.41
-5.24
-7.09
-9.30
-12.15
-15.75
-19.94
-24.23
-27.88
-29.99
-29.72
-26.50
-20.38
-12.04
-2.72
6.17
13.47
18.57
21.42
22.37
21.85
20.19
17.67
14.59
11.40
8.62
6.68
5.75
5.60
5.79
5.81
5.29
4.17
2.61
0.86
-0.81
-2.28
-3.53
-4.72
-6.08
-7.90
-10.38
-13.63
-17.49
-21.57
-25.17
-27.51
-27.84
-25.70
-21.13
-14.65
-7.15
0.38
7.08
12.45
16.26
18.50
19.24
18.57
16.65
13.80
10.49
7.29
4.72
3.05
2.25
2.00
1.86
1.44
0.56
-0.70
-2.15
-3.58
-4.89
-6.15
-7.58
-9.41
-11.83
-14.89
-18.47
-22.20
-25.45
-27.43
-27.36
-24.77
-19.71
-12.81
-5.14
2.20
8.37
13.02
16.13
17.86
18.35
17.65
15.85
13.23
10.30
7.63
5.64
4.40
3.65
2.95
1.96
0.59
-1.00
-2.47
-3.57
-4.20
-4.53
-4.88
-5.68
-7.33
-10.07
-13.87
-18.38
-22.89
-26.47
-28.18
-27.36
-23.84
-18.00
-10.58
-2.59
5.02
11.56
16.61
20.01
21.77
22.01
20.93
18.83
16.11
13.29
10.85
9.07
8.02
7.43
6.88
6.03
4.70
2.98
1.13
-0.56
-2.00
-3.31
-4.75
-6.68
-9.37
-12.89
-17.07
-21.51
-25.49
-28.20
-28.81
-26.79
-22.11
-15.27
-7.19
1.02
8.42
14.43
18.82
21.62
22.97
22.99
21.82
19.69
16.98
14.19
11.78
10.04
8.93
8.17
7.37
6.26
4.78
3.15
1.61
0.36
-0.65
-1.63
-2.88
-4.65
-7.10
-10.27
-14.07
-18.26
-22.31
-25.53
-27.11
-26.31
-22.82
-16.83
-9.08
-0.61
7.48
14.37
19.55
22.85
24.35
24.21
22.72
20.30
17.48
14.86
12.86
11.61
10.86
10.18
9.17
7.64
5.76
3.87
2.25
1.07
0.25
-0.42
-1.21
-2.45
-4.43
-7.39
-11.36
-16.09
-20.97
-25.13
-27.65
-27.81
-25.28
-20.21
-13.20
-5.19
2.75
9.71
15.05
18.54
20.28
20.54
19.63
17.85
15.51
12.99
10.69
8.86
7.55
6.57
5.66
4.56
3.25
1.89
0.65
-0.35
-1.16
-1.95
-2.95
-4.42
-6.60
-9.64
-13.54
-18.02
-22.51
-26.17
-28.16
-27.80
-24.85
-19.52
-12.44
-4.60
2.98
9.45
14.28
17.36
18.86
19.11
18.39
16.92
14.87
12.46
10.00
7.73
5.82
4.25
2.90
1.65
0.47
-0.57
-1.39
-1.95
-2.40
-2.97
-3.92
-5.53
-7.98
-11.35
-15.47
-19.95
-24.11
-27.07
-27.97
-26.24
-21.77
-15.02
-6.93
1.30
8.55
14.09
17.68
19.54
20.12
19.83
18.91
17.45
15.51
13.27
11.06
9.21
7.91
7.09
6.43
5.58
4.29
2.57
0.64
-1.26
-2.95
-4.46
-5.93
-7.68
-10.02
-13.19
-17.21
-21.78
-26.16
-29.38
-30.43
-28.62
-23.84
-16.65
-8.08
0.71
8.72
15.36
20.38
23.72
25.38
25.39
23.87
21.16
17.84
14.60
12.01
10.26
9.18
8.33
7.31
5.92
4.28
2.64
1.26
0.20
-0.64
-1.51
-2.70
-4.51
-7.21
-10.95
-15.62
-20.82
-25.77
-29.48
-30.99
-29.65
-25.32
-18.50
-10.12
-1.38
6.61
13.07
17.72
20.72
22.45
23.31
23.49
22.97
21.69
19.71
17.28
14.77
12.51
10.67
9.23
8.04
6.94
5.85
4.75
3.63
2.50
1.31
-0.01
-1.61
-3.63
-6.28
-9.67
-13.80
-18.48
-23.27
-27.54
-30.53
-31.54
-30.04
-25.85
-19.24
-10.94
-1.96
6.67
14.03
19.62
23.25
25.03
25.23
24.14
22.06
19.32
16.25
13.22
10.61
8.67
7.50
7.01
6.90
6.78
6.32
5.38
3.98
2.32
0.59
-1.12
-2.88
-4.81
-7.08
-9.80
-12.98
-16.47
-19.98
-22.98
-24.84
-24.87
-22.65
-18.17
-11.86
-4.54
2.87
9.58
15.01
18.86
20.93
21.20
19.77
16.97
13.33
9.56
6.31
4.04
2.89
2.65
2.88
3.11
2.93
2.16
0.84
-0.84
-2.63
-4.40
-6.15
-8.00
-10.20
-12.91
-16.26
-20.22
-24.55
-28.71
-31.92
-33.30
-32.10
-28.03
-21.38
-12.99
-3.95
4.71
12.27
18.38
22.95
25.90
27.14
26.64
24.50
21.15
17.24
13.54
10.66
8.88
8.11
7.91
7.76
7.20
6.05
4.37
2.39
0.38
-1.54
-3.39
-5.33
-7.60
-10.42
-13.96
-18.21
-22.89
-27.43
-30.94
-32.44
-31.21
-27.00
-20.19
-11.67
-2.54
6.17
13.76
19.85
24.32
27.16
28.38
28.03
26.28
23.48
20.18
17.02
14.53
12.99
12.28
11.96
11.49
10.44
8.72
6.57
4.36
2.37
0.61
-1.11
-3.07
-5.46
-8.34
-11.65
-15.40
-19.64
-24.36
-29.26
-33.55
-36.11
-35.79
-31.90
-24.52
-14.57
-3.55
6.98
15.80
22.31
26.44
28.49
28.84
27.85
25.83
23.11
20.10
17.28
15.06
13.61
12.88
12.54
12.20
11.51
10.33
8.70
6.75
4.68
2.57
0.48
-1.62
-3.80
-6.11
-8.67
-11.62
-15.15
-19.42
-24.32
-29.38
-33.69
-36.03
-35.26
-30.77
-22.79
-12.45
-1.35
8.90
17.20
23.14
26.85
28.68
28.90
27.68
25.16
21.67
17.78
14.20
11.49
9.92
9.29
9.10
8.78
7.94
6.50
4.65
2.68
0.85
-0.77
-2.25
-3.79
-5.60
-7.84
-10.66
-14.15
-18.37
-23.17
-28.11
-32.38
-34.95
-34.84
-31.47
-24.93
-15.97
-5.85
4.05
12.63
19.22
23.60
25.85
26.17
24.80
22.04
18.33
14.30
10.59
7.77
6.08
5.38
5.27
5.25
4.90
4.02
2.63
0.89
-1.00
-2.94
-4.90
-7.01
-9.45
-12.46
-16.15
-20.49
-25.14
-29.44
-32.51
-33.40
-31.45
-26.45
-18.81
-9.45
0.42
9.65
17.40
23.19
26.86
28.41
27.95
25.75
22.28
18.23
14.34
11.17
8.95
7.50
6.40
5.21
3.69
1.86
-0.02
-1.71
-3.06
-4.16
-5.22
-6.60
-8.59
-11.46
-15.33
-20.15
-25.56
-30.88
-35.10
-37.06
-35.84
-31.02
-22.94
-12.65
-1.61
8.71
17.24
23.44
27.30
29.09
29.13
27.73
25.14
21.73
17.97
14.41
11.52
9.49
8.19
7.18
6.03
4.45
2.47
0.35
-1.59
-3.17
-4.43
-5.69
-7.36
-9.84
-13.38
-17.97
-23.27
-28.54
-32.76
-34.79
-33.70
-29.13
-21.42
-11.57
-0.96
9.09
17.62
24.15
28.56
30.92
31.33
29.95
27.06
23.17
19.02
15.33
12.58
10.91
10.04
9.46
8.68
7.42
5.68
3.67
1.74
0.10
-1.23
-2.49
-4.10
-6.52
-10.05
-14.74
-20.25
-25.91
-30.71
-33.57
-33.51
-30.03
-23.25
-14.01
-3.63
6.49
15.23
22.03
26.81
29.76
31.07
30.82
29.01
25.82
21.66
17.20
13.16
10.10
8.18
7.18
6.62
6.01
5.03
3.66
2.07
0.49
-0.92
-2.26
-3.80
-5.93
-8.96
-13.03
-17.99
-23.39
-28.46
-32.19
-33.60
-31.94
-27.03
-19.37
-10.01
-0.27
8.68
16.06
21.51
24.96
26.39
25.82
23.35
19.34
14.51
9.79
6.00
3.60
2.50
2.21
2.11
1.72
0.85
-0.41
-1.86
-3.33
-4.78
-6.34
-8.19
-10.55
-13.60
-17.41
-21.84
-26.49
-30.60
-33.20
-33.33
-30.41
-24.46
-16.12
-6.49
3.20
11.90
18.92
23.91
26.76
27.48
26.20
23.19
18.95
14.17
9.62
5.99
3.63
2.50
2.15
2.03
1.65
0.78
-0.48
-1.91
-3.32
-4.77
-6.58
-9.15
-12.81
-17.62
-23.30
-29.12
-34.11
-37.13
-37.17
-33.68
-26.77
-17.25
-6.43
4.26
13.65
21.09
26.34
29.42
30.45
29.55
26.97
23.21
19.01
15.16
12.23
10.38
9.36
8.63
7.66
6.18
4.20
1.95
-0.27
-2.26
-4.07
-5.92
-8.24
-11.51
-16.04
-21.83
-28.34
-34.53
-39.04
-40.51
-38.09
-31.69
-22.11
-10.73
0.88
11.35
19.86
26.10
30.12
32.12
32.27
30.75
27.84
24.02
19.95
16.33
13.67
12.11
11.38
10.93
10.17
8.77
6.72
4.32
1.95
-0.11
-1.84
-3.50
-5.53
-8.41
-12.48
-17.81
-24.02
-30.31
-35.49
-38.26
-37.58
-32.99
-24.84
-14.26
-2.75
8.17
17.39
24.38
29.10
31.83
32.91
32.59
31.05
28.52
25.29
21.83
18.59
15.92
13.96
12.58
11.45
10.21
8.65
6.77
4.76
2.85
1.14
-0.45
-2.19
-4.38
-7.27
-11.00
-15.54
-20.70
-26.15
-31.30
-35.35
-37.30
-36.24
-31.63
-23.58
-12.99
-1.28
9.92
19.30
26.17
30.48
32.58
32.99
32.05
29.93
26.76
22.80
18.57
14.73
11.84
10.15
9.45
9.19
8.75
7.64
5.74
3.29
0.69
-1.67
-3.61
-5.17
-6.62
-8.36
-10.70
-13.91
-18.08
-23.02
-28.25
-32.90
-35.91
-36.21
-33.12
-26.59
-17.31
-6.52
4.34
14.00
21.62
26.82
29.64
30.26
28.96
26.00
21.79
16.86
11.96
7.82
5.00
3.67
3.54
3.97
4.28
3.97
2.91
1.29
-0.59
-2.49
-4.39
-6.41
-8.81
-11.74
-15.30
-19.45
-23.98
-28.42
-32.09
-34.13
-33.72
-30.34
-24.01
-15.35
-5.40
4.62
13.69
21.08
26.42
29.57
30.50
29.30
26.19
21.66
16.49
11.60
7.84
5.68
5.05
5.34
5.69
5.35
3.98
1.71
-0.95
-3.43
-5.40
-6.89
-8.22
-9.85
-12.20
-15.57
-20.00
-25.29
-30.81
-35.55
-38.25
-37.76
-33.46
-25.54
-14.96
-3.16
8.35
18.38
26.16
31.28
33.62
33.22
30.42
25.84
20.39
15.10
10.85
8.18
7.11
7.16
7.62
7.72
6.95
5.17
2.61
-0.27
-3.01
-5.33
-7.24
-9.04
-11.14
-14.00
-17.89
-22.80
-28.26
-33.36
-36.86
-37.54
-34.61
-28.08
-18.74
-7.95
2.83
12.44
20.26
26.06
29.84
31.55
31.15
28.75
24.76
19.92
15.21
11.44
9.07
8.03
7.87
7.89
7.52
6.46
4.76
2.70
0.61
-1.30
-3.05
-4.87
-7.09
-10.04
-13.93
-18.76
-24.19
-29.49
-33.60
-35.37
-33.86
-28.77
-20.57
-10.39
0.30
10.20
18.45
24.69
28.88
31.07
31.31
29.65
26.36
21.97
17.29
13.11
9.99
8.11
7.19
6.72
6.17
5.18
3.70
1.89
0.04
-1.62
-3.04
-4.37
-5.93
-8.13
-11.30
-15.58
-20.78
-26.30
-31.22
-34.38
-34.80
-31.87
-25.54
-16.41
-5.60
5.51
15.55
23.42
28.47
30.51
29.77
26.80
22.34
17.24
12.33
8.33
5.70
4.52
4.46
4.86
5.00
4.36
2.78
0.51
-2.01
-4.32
-6.18
-7.60
-8.87
-10.45
-12.80
-16.20
-20.57
-25.35
-29.52
-31.88
-31.41
-27.61
-20.65
-11.41
-1.17
8.74
17.18
23.40
27.04
28.06
26.73
23.51
19.08
14.22
9.74
6.30
4.22
3.39
3.32
3.37
2.97
1.86
0.17
-1.75
-3.54
-5.09
-6.55
-8.32
-10.85
-14.42
-18.99
-24.17
-29.15
-32.87
-34.25
-32.46
-27.22
-19.01
-8.93
1.59
11.17
18.79
23.95
26.56
26.82
25.05
21.66
17.19
12.36
7.97
4.70
2.93
2.53
2.90
3.27
2.93
1.61
-0.52
-2.98
-5.30
-7.23
-8.93
-10.86
-13.53
-17.25
-21.98
-27.18
-31.91
-35.06
-35.55
-32.74
-26.65
-17.97
-7.94
2.09
10.99
18.10
23.24
26.44
27.81
27.38
25.25
21.72
17.35
12.97
9.33
6.90
5.67
5.20
4.84
4.04
2.59
0.68
-1.32
-3.08
-4.55
-5.96
-7.78
-10.45
-14.20
-18.96
-24.32
-29.49
-33.43
-35.03
-33.43
-28.34
-20.20
-10.13
0.43
10.17
18.20
24.17
28.09
30.06
30.18
28.52
25.33
21.10
16.56
12.48
9.40
7.50
6.58
6.18
5.78
4.99
3.67
1.90
-0.06
-1.96
-3.72
-5.42
-7.37
-9.95
-13.47
-18.01
-23.30
-28.67
-33.11
-35.47
-34.80
-30.64
-23.23
-13.46
-2.66
7.87
17.14
24.58
29.96
33.23
34.38
33.48
30.70
26.53
21.68
17.00
13.19
10.66
9.42
9.10
9.14
8.95
8.16
6.62
4.48
2.06
-0.32
-2.44
-4.32
-6.15
-8.27
-11.04
-14.68
-19.23
-24.44
-29.68
-34.08
-36.60
-36.28
-32.55
-25.46
-15.70
-4.47
6.80
16.81
24.58
29.64
31.99
31.94
30.05
27.00
23.38
19.72
16.41
13.64
11.50
9.96
8.94
8.26
7.70
7.02
6.02
4.61
2.84
0.87
-1.12
-3.02
-4.85
-6.77
-9.03
-11.91
-15.61
-20.17
-25.35
-30.57
-34.96
-37.49
-37.26
-33.69
-26.83
-17.37
-6.48
4.47
14.27
22.04
27.36
30.16
30.61
29.09
26.08
22.20
18.12
14.43
11.55
9.61
8.49
7.89
7.41
6.72
5.60
4.01
2.12
0.20
-1.45
-2.74
-3.83
-5.10
-7.02
-9.95
-13.99
-18.99
-24.56
-30.06
-34.65
-37.30
-37.05
-33.31
-26.14
-16.38
-5.39
5.30
14.51
21.60
26.50
29.41
30.59
30.22
28.42
25.41
21.60
17.60
14.04
11.40
9.84
9.15
8.89
8.51
7.65
6.18
4.23
2.09
-0.00
-1.92
-3.74
-5.63
-7.81
-10.45
-13.64
-17.46
-21.89
-26.78
-31.64
-35.62
-37.61
-36.57
-31.95
-23.96
-13.64
-2.50
7.97
16.69
23.26
27.81
30.70
32.15
32.19
30.78
27.97
24.13
19.93
16.13
13.32
11.70
11.01
10.74
10.31
9.38
7.87
5.98
3.98
2.08
0.33
-1.41
-3.34
-5.68
-8.52
-11.86
-15.66
-19.85
-24.25
-28.53
-32.04
-33.91
-33.22
-29.37
-22.37
-12.97
-2.46
7.71
16.37
22.92
27.26
29.65
30.44
29.89
28.15
25.39
21.90
18.16
14.71
12.08
10.53
10.01
10.23
10.65
10.80
10.32
9.09
7.19
4.81
2.23
-0.30
-2.59
-4.60
-6.49
-8.57
-11.24
-14.79
-19.24
-24.22
-29.00
-32.57
-33.89
-32.17
-27.08
-18.99
-8.87
1.86
11.71
19.57
24.90
27.77
28.65
28.07
26.42
23.99
21.03
17.87
14.96
12.70
11.25
10.44
9.88
9.12
7.90
6.25
4.39
2.66
1.28
0.25
-0.61
-1.60
-2.99
-4.96
-7.56
-10.75
-14.48
-18.63
-22.93
-26.84
-29.58
-30.29
-28.36
-23.65
-16.64
-8.33
0.14
7.75
13.88
18.34
21.14
22.40
22.19
20.59
17.79
14.19
10.34
6.88
4.30
2.83
2.33
2.36
2.43
2.15
1.40
0.29
-0.93
-2.08
-3.12
-4.19
-5.51
-7.27
-9.57
-12.42
-15.80
-19.60
-23.55
-27.09
-29.42
-29.67
-27.18
-21.88
-14.33
-5.64
2.96
10.45
16.27
20.28
22.59
23.30
22.46
20.16
16.70
12.66
8.81
5.81
4.00
3.30
3.22
3.19
2.76
1.76
0.30
-1.33
-2.93
-4.40
-5.83
-7.42
-9.41
-12.00
-15.28
-19.18
-23.40
-27.37
-30.28
-31.23
-29.53
-24.98
-17.97
-9.48
-0.76
7.10
13.40
17.96
20.96
22.67
23.24
22.67
20.99
18.37
15.24
12.14
9.54
7.64
6.33
5.27
4.10
2.63
0.89
-0.89
-2.47
-3.68
-4.55
-5.36
-6.52
-8.44
-11.40
-15.37
-19.95
-24.44
-27.99
-29.79
-29.31
-26.37
-21.20
-14.34
-6.52
1.47
8.94
15.35
20.39
23.86
25.67
25.78
24.29
21.47
17.81
13.96
10.56
8.05
6.54
5.82
5.49
5.16
4.57
3.64
2.43
1.02
-0.56
-2.35
-4.43
-6.85
-9.69
-12.94
-16.59
-20.46
-24.19
-27.23
-28.88
-28.48
-25.65
-20.40
-13.27
-5.14
3.01
10.31
16.18
20.37
22.83
23.62
22.87
20.81
17.77
14.23
10.75
7.82
5.74
4.50
3.87
3.46
2.94
2.17
1.20
0.24
-0.57
-1.22
-1.93
-3.05
-4.88
-7.64
-11.27
-15.53
-19.98
-24.04
-27.02
-28.24
-27.15
-23.57
-17.75
-10.38
-2.45
5.06
11.40
16.16
19.19
20.54
20.32
18.70
15.98
12.65
9.33
6.58
4.74
3.80
3.41
3.09
2.45
1.40
0.08
-1.22
-2.30
-3.12
-3.85
-4.79
-6.27
-8.60
-11.98
-16.33
-21.18
-25.72
-28.87
-29.62
-27.37
-22.18
-14.73
-6.12
2.48
10.11
16.17
20.35
22.66
23.20
22.25
20.16
17.35
14.28
11.40
9.03
7.33
6.18
5.26
4.20
2.76
0.96
-0.95
-2.62
-3.84
-4.67
-5.44
-6.60
-8.53
-11.45
-15.27
-19.69
-24.17
-27.95
-30.17
-30.12
-27.36
-21.99
-14.63
-6.26
2.08
9.51
15.48
19.79
22.49
23.74
23.76
22.72
20.86
18.43
15.76
13.21
11.00
9.15
7.51
5.86
4.06
2.17
0.43
-0.92
-1.79
-2.34
-2.92
-3.96
-5.75
-8.45
-12.03
-16.29
-20.82
-24.96
-27.84
-28.61
-26.64
-21.85
-14.78
-6.44
2.03
9.66
15.85
20.38
23.27
24.62
24.56
23.25
20.97
18.10
15.16
12.60
10.72
9.60
9.04
8.72
8.24
7.36
5.99
4.25
2.37
0.57
-1.11
-2.75
-4.54
-6.65
-9.19
-12.19
-15.62
-19.37
-23.12
-26.35
-28.29
-28.14
-25.40
-20.03
-12.62
-4.15
4.27
11.77
17.80
22.15
24.84
25.93
25.54
23.88
21.22
17.97
14.55
11.37
8.75
6.90
5.86
5.51
5.55
5.59
5.29
4.41
2.98
1.21
-0.65
-2.48
-4.32
-6.39
-8.89
-11.96
-15.51
-19.26
-22.80
-25.57
-26.98
-26.49
-23.76
-18.81
-12.11
-4.46
3.18
9.97
15.34
19.06
21.15
21.71
20.87
18.83
15.88
12.47
9.12
6.33
4.45
3.54
3.40
3.62
3.77
3.54
2.82
1.68
0.27
-1.30
-3.03
-4.97
-7.20
-9.77
-12.68
-15.92
-19.38
-22.84
-25.83
-27.66
-27.57
-25.00
-19.94
-12.91
-4.88
3.06
10.05
15.60
19.57
21.96
22.80
22.14
20.10
17.02
13.51
10.20
7.67
6.17
5.62
5.65
5.76
5.52
4.64
3.11
1.11
-1.06
-3.13
-5.02
-6.83
-8.84
-11.36
-14.60
-18.52
-22.73
-26.55
-29.15
-29.71
-27.73
-23.15
-16.41
-8.38
-0.11
7.47
13.70
18.26
21.10
22.34
22.12
20.62
18.15
15.08
11.92
9.13
7.01
5.64
4.83
4.25
3.58
2.57
1.21
-0.37
-1.95
-3.33
-4.47
-5.55
-6.93
-9.03
-12.15
-16.33
-21.17
-25.87
-29.38
-30.72
-29.28
-25.04
-18.54
-10.67
-2.39
5.51
12.50
18.29
22.68
25.52
26.68
26.11
23.94
20.51
16.38
12.28
8.83
6.51
5.41
5.23
5.42
5.43
4.91
3.83
2.33
0.61
-1.20
-3.12
-5.20
-7.51
-10.09
-12.98
-16.23
-19.80
-23.42
-26.51
-28.29
-27.97
-25.07
-19.63
-12.20
-3.70
4.87
12.63
18.97
23.57
26.35
27.37
26.71
24.52
21.08
16.87
12.60
9.07
6.87
6.18
6.64
7.49
7.95
7.54
6.23
4.34
2.29
0.37
-1.38
-3.08
-4.90
-6.93
-9.26
-12.00
-15.27
-19.10
-23.29
-27.28
-30.15
-30.90
-28.80
-23.66
-15.96
-6.72
2.77
11.35
18.23
23.04
25.77
26.60
25.77
23.55
20.29
16.49
12.71
9.50
7.23
5.95
5.40
5.19
4.91
4.34
3.40
2.19
0.83
-0.61
-2.12
-3.74
-5.58
-7.79
-10.54
-13.95
-18.02
-22.48
-26.78
-30.12
-31.64
-30.63
-26.83
-20.50
-12.41
-3.59
4.86
12.13
17.73
21.52
23.54
23.93
22.81
20.46
17.27
13.77
10.57
8.13
6.61
5.85
5.38
4.68
3.42
1.55
-0.67
-2.80
-4.43
-5.43
-6.00
-6.56
-7.63
-9.66
-12.90
-17.30
-22.46
-27.63
-31.80
-33.84
-32.85
-28.46
-21.04
-11.55
-1.36
8.25
16.27
22.14
25.70
27.08
26.55
24.52
21.48
17.96
14.48
11.46
9.19
7.75
6.91
6.27
5.34
3.77
1.56
-0.94
-3.19
-4.76
-5.59
-5.98
-6.55
-7.84
-10.28
-13.98
-18.77
-24.24
-29.73
-34.36
-37.14
-37.17
-33.95
-27.58
-18.81
-8.80
1.11
9.83
16.63
21.19
23.53
23.88
22.53
19.87
16.27
12.16
8.00
4.25
1.20
-1.06
-2.71
-4.17
-5.87
-8.02
-10.53
-12.91
-14.56
-15.00
-14.17
-12.46
-10.63
-9.53
-9.84
-11.96
-15.92
-21.40
-27.78
-34.21
-39.67
-43.14
-43.91
-41.71
-36.88
-30.21
-22.83
-15.91
-10.42
-6.97
-5.85
-6.98
-10.07
-14.52
-19.43
-23.59
-25.60
-24.05
-17.93
-6.87
8.62
27.27
47.36
67.09
84.92
99.74
110.80
117.56
119.69
117.07
109.90
98.81
84.80
69.09
52.82
36.83
21.61
7.42
-5.36
-16.07
-23.76
-27.51
-26.79
-21.84
-13.78
-4.28
4.88
12.30
17.30
19.86
20.39
19.37
17.17
14.00
10.09
5.77
1.57
-1.90
-4.16
-5.05
-4.82
-4.04
-3.38
-3.35
-4.17
-5.73
-7.72
-9.81
-11.74
-13.42
-14.88
-16.30
-17.89
-19.95
-22.70
-26.25
-30.43
-34.64
-37.91
-39.12
-37.38
-32.34
-24.40
-14.59
-4.25
5.35
13.28
19.08
22.61
23.92
23.16
20.61
16.71
12.15
7.74
4.21
1.98
1.04
1.00
1.26
1.30
0.81
-0.23
-1.65
-3.25
-4.88
-6.50
-8.19
-10.05
-12.22
-14.83
-17.99
-21.68
-25.69
-29.52
-32.39
-33.41
-31.76
-27.08
-19.57
-10.10
0.09
9.64
17.51
23.12
26.34
27.36
26.47
23.98
20.29
15.95
11.63
7.94
5.27
3.64
2.72
2.01
1.14
-0.05
-1.48
-2.94
-4.26
-5.45
-6.67
-8.20
-10.33
-13.35
-17.38
-22.34
-27.76
-32.84
-36.44
-37.46
-35.12
-29.30
-20.61
-10.26
0.30
9.82
17.47
22.91
26.16
27.43
26.99
25.10
22.17
18.71
15.32
12.43
10.26
8.65
7.22
5.57
3.48
1.06
-1.37
-3.43
-4.89
-5.83
-6.55
-7.54
-9.24
-12.03
-16.06
-21.23
-27.04
-32.60
-36.69
-38.03
-35.69
-29.45
-19.98
-8.64
2.90
13.20
21.34
26.99
30.20
31.18
30.13
27.31
23.17
18.43
13.95
10.48
8.44
7.67
7.60
7.49
6.74
5.16
2.95
0.59
-1.46
-2.96
-4.01
-5.02
-6.60
-9.31
-13.48
-18.98
-25.14
-30.80
-34.54
-35.13
-31.87
-24.87
-15.03
-3.79
7.35
17.10
24.72
29.93
32.74
33.35
31.99
28.99
24.86
20.29
15.98
12.51
10.14
8.69
7.74
6.76
5.41
3.64
1.68
-0.17
-1.70
-2.91
-4.05
-5.52
-7.67
-10.76
-14.84
-19.68
-24.79
-29.35
-32.33
-32.68
-29.64
-23.06
-13.59
-2.51
8.59
18.25
25.53
30.08
32.00
31.64
29.35
25.53
20.68
15.48
10.76
7.22
5.21
4.54
4.59
4.55
3.83
2.26
0.09
-2.18
-4.15
-5.70
-7.07
-8.73
-11.14
-14.63
-19.18
-24.42
-29.64
-33.87
-36.02
-35.19
-30.89
-23.25
-13.15
-1.95
8.80
17.83
24.31
27.99
28.99
27.67
24.49
20.08
15.21
10.71
7.26
5.16
4.25
3.96
3.61
2.75
1.25
-0.66
-2.63
-4.41
-5.98
-7.56
-9.49
-12.17
-15.90
-20.71
-26.25
-31.66
-35.69
-37.01
-34.63
-28.33
-18.78
-7.37
4.21
14.49
22.51
27.92
30.71
31.10
29.32
25.77
21.03
15.97
11.52
8.39
6.80
6.42
6.52
6.30
5.28
3.39
0.91
-1.76
-4.30
-6.65
-8.96
-11.52
-14.67
-18.65
-23.50
-28.87
-33.92
-37.43
-38.11
-35.03
-28.07
-17.99
-6.24
5.57
16.04
24.36
30.22
33.59
34.59
33.37
30.19
25.60
20.41
15.55
11.84
9.66
8.86
8.81
8.73
7.98
6.36
4.07
1.58
-0.73
-2.70
-4.56
-6.72
-9.61
-13.55
-18.58
-24.36
-30.15
-34.81
-36.99
-35.57
-30.10
-21.01
-9.61
2.38
13.36
22.26
28.70
32.75
34.67
34.68
32.95
29.77
25.64
21.28
17.41
14.61
13.04
12.46
12.31
11.97
10.93
9.00
6.37
3.44
0.67
-1.69
-3.65
-5.46
-7.48
-10.13
-13.70
-18.35
-23.95
-29.92
-35.20
-38.41
-38.21
-33.79
-25.34
-13.95
-1.38
10.58
20.60
28.07
32.91
35.35
35.58
33.73
30.04
25.00
19.44
14.42
10.85
9.13
9.06
9.87
10.57
10.37
8.94
6.47
3.50
0.63
-1.73
-3.52
-4.98
-6.55
-8.74
-11.91
-16.19
-21.41
-27.01
-32.06
-35.44
-36.03
-33.08
-26.47
-16.87
-5.58
5.81
15.87
23.64
28.70
31.07
30.98
28.77
24.85
19.78
14.36
9.47
5.88
3.96
3.53
3.95
4.39
4.13
2.83
0.65
-1.96
-4.45
-6.42
-7.80
-8.89
-10.22
-12.40
-15.85
-20.67
-26.46
-32.28
-36.85
-38.79
-37.09
-31.41
-22.27
-10.92
1.01
11.98
20.87
27.14
30.73
31.80
30.66
27.69
23.41
18.56
14.02
10.55
8.57
7.96
8.11
8.16
7.36
5.42
2.54
-0.69
-3.64
-5.85
-7.30
-8.35
-9.62
-11.82
-15.47
-20.73
-27.18
-33.83
-39.25
-41.90
-40.59
-34.90
-25.38
-13.41
-0.77
10.89
20.42
27.30
31.61
33.63
33.75
32.25
29.40
25.61
21.46
17.62
14.64
12.78
11.84
11.32
10.57
9.14
6.91
4.10
1.12
-1.61
-3.88
-5.75
-7.50
-9.52
-12.24
-15.98
-20.86
-26.68
-32.81
-38.18
-41.45
-41.30
-36.94
-28.43
-16.84
-3.89
8.49
18.83
26.40
31.17
33.58
34.11
33.10
30.86
27.70
24.11
20.66
17.82
15.79
14.48
13.57
12.71
11.60
10.07
8.11
5.85
3.52
1.33
-0.61
-2.39
-4.25
-6.47
-9.34
-12.99
-17.46
-22.64
-28.21
-33.51
-37.56
-39.16
-37.34
-31.67
-22.60
-11.30
0.65
11.78
21.03
27.94
32.45
34.78
35.22
34.06
31.59
28.11
24.01
19.75
15.78
12.53
10.21
8.81
8.05
7.59
7.10
6.39
5.37
4.06
2.41
0.39
-2.05
-4.86
-7.95
-11.25
-14.73
-18.46
-22.55
-26.96
-31.36
-35.01
-36.92
-36.09
-31.92
-24.50
-14.67
-3.81
6.58
15.39
22.06
26.56
29.05
29.64
28.35
25.24
20.67
15.37
10.36
6.53
4.37
3.81
4.28
4.99
5.24
4.64
3.18
1.13
-1.09
-3.18
-5.03
-6.83
-8.91
-11.58
-14.98
-19.05
-23.53
-27.94
-31.69
-33.98
-33.98
-31.03
-24.94
-16.17
-5.85
4.64
14.01
21.41
26.49
29.30
29.99
28.70
25.65
21.23
16.09
11.12
7.11
4.64
3.75
3.98
4.60
4.83
4.16
2.48
0.08
-2.63
-5.26
-7.64
-9.84
-12.07
-14.60
-17.66
-21.36
-25.61
-30.01
-33.76
-35.82
-35.21
-31.35
-24.37
-15.12
-4.80
5.39
14.51
22.01
27.56
30.89
31.81
30.27
26.59
21.51
16.04
11.18
7.66
5.70
5.02
4.99
4.94
4.37
3.14
1.40
-0.52
-2.34
-4.01
-5.69
-7.64
-10.14
-13.36
-17.38
-22.01
-26.83
-31.02
-33.53
-33.30
-29.71
-22.84
-13.58
-3.29
6.62
15.15
21.74
26.28
28.80
29.34
27.98
24.94
20.78
16.25
12.20
9.28
7.71
7.24
7.27
7.12
6.31
4.71
2.55
0.28
-1.77
-3.47
-5.01
-6.68
-8.84
-11.69
-15.28
-19.50
-24.01
-28.19
-31.13
-31.86
-29.58
-24.05
-15.75
-5.76
4.54
13.86
21.34
26.56
29.45
30.15
28.89
26.04
22.12
17.78
13.72
10.51
8.48
7.55
7.37
7.40
7.11
6.21
4.67
2.69
0.52
-1.66
-3.81
-6.00
-8.36
-11.01
-14.11
-17.73
-21.76
-25.80
-29.06
-30.52
-29.26
-24.88
-17.69
-8.69
0.81
9.54
16.61
21.56
24.29
24.89
23.60
20.76
16.89
12.63
8.65
5.53
3.59
2.79
2.78
2.99
2.87
2.08
0.59
-1.33
-3.31
-5.08
-6.63
-8.18
-10.11
-12.74
-16.24
-20.43
-24.78
-28.42
-30.32
-29.60
-25.80
-19.16
-10.58
-1.28
7.49
14.84
20.31
23.75
25.17
24.64
22.32
18.60
14.14
9.79
6.29
4.05
3.02
2.75
2.63
2.16
1.18
-0.25
-1.90
-3.60
-5.29
-7.09
-9.21
-11.79
-14.97
-18.70
-22.74
-26.55
-29.30
-30.04
-28.04
-23.12
-15.76
-7.03
1.80
9.74
16.20
21.02
24.17
25.63
25.30
23.26
19.85
15.76
11.80
8.63
6.52
5.32
4.64
4.02
3.18
2.04
0.65
-0.91
-2.53
-4.22
-6.07
-8.26
-11.01
-14.52
-18.75
-23.34
-27.51
-30.26
-30.62
-28.00
-22.42
-14.54
-5.45
3.64
11.67
17.93
22.11
24.19
24.36
23.00
20.53
17.46
14.32
11.58
9.53
8.25
7.56
7.13
6.62
5.78
4.55
3.05
1.47
-0.04
-1.52
-3.16
-5.28
-8.17
-12.00
-16.67
-21.74
-26.38
-29.51
-30.08
-27.39
-21.48
-13.12
-3.65
5.48
13.13
18.76
22.41
24.40
25.10
24.73
23.38
21.17
18.36
15.39
12.71
10.64
9.20
8.16
7.17
5.95
4.44
2.76
1.14
-0.29
-1.52
-2.75
-4.26
-6.33
-9.11
-12.67
-16.83
-21.21
-25.15
-27.80
-28.31
-26.14
-21.28
-14.29
-6.15
2.05
9.46
15.52
20.02
22.92
24.20
23.85
22.01
19.00
15.40
11.85
8.89
6.79
5.56
4.94
4.64
4.42
4.08
3.52
2.64
1.37
-0.32
-2.38
-4.73
-7.32
-10.16
-13.30
-16.73
-20.25
-23.45
-25.70
-26.37
-25.00
-21.45
-15.97
-9.16
-1.79
5.36
11.66
16.70
20.26
22.26
22.67
21.50
18.91
15.31
11.30
7.63
4.90
3.31
2.67
2.47
2.20
1.53
0.48
-0.78
-1.99
-3.10
-4.22
-5.60
-7.53
-10.21
-13.71
-17.84
-22.17
-25.96
-28.34
-28.49
-25.94
-20.81
-13.75
-5.76
2.11
9.08
14.70
18.87
21.60
22.87
22.63
20.91
17.98
14.39
10.88
8.13
6.45
5.72
5.44
5.01
4.03
2.45
0.57
-1.21
-2.64
-3.79
-4.94
-6.48
-8.69
-11.67
-15.35
-19.48
-23.68
-27.36
-29.77
-30.14
-27.92
-23.01
-15.93
-7.66
0.63
7.97
13.88
18.32
21.51
23.60
24.55
24.19
22.41
19.42
15.81
12.34
9.65
8.04
7.30
6.95
6.50
5.65
4.38
2.89
1.36
-0.15
-1.72
-3.56
-5.81
-8.54
-11.75
-15.34
-19.16
-22.92
-26.19
-28.32
-28.64
-26.64
-22.21
-15.75
-8.14
-0.41
6.63
12.57
17.41
21.25
24.12
25.80
25.92
24.33
21.27
17.43
13.68
10.75
8.97
8.25
8.21
8.34
8.23
7.61
6.39
4.62
2.50
0.30
-1.74
-3.52
-5.14
-6.86
-8.99
-11.82
-15.41
-19.59
-23.86
-27.48
-29.56
-29.30
-26.27
-20.57
-12.88
-4.21
4.34
11.83
17.69
21.66
23.73
24.09
23.02
20.91
18.18
15.27
12.57
10.34
8.72
7.71
7.20
6.98
6.76
6.27
5.33
3.92
2.17
0.29
-1.51
-3.13
-4.59
-6.06
-7.85
-10.28
-13.59
-17.73
-22.27
-26.38
-29.07
-29.46
-27.09
-22.04
-14.92
-6.70
1.58
9.06
15.14
19.49
21.98
22.66
21.69
19.36
16.10
12.48
9.16
6.67
5.26
4.82
4.86
4.79
4.15
2.81
0.96
-1.04
-2.85
-4.28
-5.36
-6.28
-7.32
-8.76
-10.83
-13.66
-17.15
-20.91
-24.31
-26.52
-26.80
-24.66
-20.07
-13.50
-5.79
2.07
9.13
14.77
18.69
20.88
21.50
20.80
19.03
16.52
13.61
10.71
8.18
6.23
4.89
3.97
3.23
2.43
1.46
0.36
-0.81
-1.99
-3.21
-4.60
-6.31
-8.50
-11.30
-14.73
-18.69
-22.83
-26.59
-29.14
-29.69
-27.69
-23.08
-16.38
-8.51
-0.51
6.76
12.74
17.22
20.14
21.58
21.62
20.42
18.25
15.48
12.58
9.95
7.87
6.37
5.32
4.49
3.64
2.62
1.42
0.14
-1.11
-2.26
-3.35
-4.57
-6.22
-8.58
-11.80
-15.75
-19.97
-23.73
-26.20
-26.71
-24.95
-21.05
-15.49
-8.90
-1.91
4.97
11.28
16.60
20.53
22.77
23.22
22.00
19.48
16.15
12.55
9.20
6.51
4.72
3.87
3.75
3.99
4.15
3.90
3.11
1.85
0.30
-1.37
-3.16
-5.21
-7.78
-11.04
-14.94
-19.11
-22.84
-25.27
-25.64
-23.62
-19.39
-13.56
-6.91
-0.09
6.48
12.50
17.73
21.76
24.14
24.56
23.06
20.18
16.72
13.55
11.17
9.65
8.66
7.74
