1629142053.00
64.000000
-0.00
-0.00
-0.00
-0.00
-0.00
-0.00
-0.00
-0.00
-0.00
-0.00
0.00
0.01
0.01
-0.00
-0.03
-0.05
-0.05
0.00
0.13
0.36
0.66
1.01
1.37
1.72
2.06
2.40
2.79
3.24
3.80
4.42
5.06
5.66
6.20
6.68
7.15
7.68
8.31
9.14
10.09
11.04
11.88
12.56
13.14
13.76
14.65
15.96
17.91
20.32
22.90
25.38
27.58
29.57
31.68
34.32
37.82
42.54
48.15
54.10
59.83
64.97
69.59
74.18
79.40
85.76
93.77
102.91
112.39
121.33
129.21
136.08
142.57
150.00
157.03
165.88
177.12
190.85
205.89
219.37
226.99
224.12
207.34
175.71
131.54
78.63
21.33
-37.06
-94.88
-151.77
-207.85
-262.89
-316.22
-366.55
-413.07
-455.03
-491.66
-521.83
-543.89
-556.02
-556.62
-544.94
-521.14
-486.67
-443.60
-394.22
-340.65
-284.67
-227.85
-171.67
-117.76
-67.62
-22.67
16.25
49.00
76.03
98.16
116.18
130.59
141.54
148.95
152.51
151.93
147.12
138.62
128.05
118.21
112.52
113.87
123.34
139.45
158.54
176.06
188.30
193.50
191.97
185.30
175.21
162.85
148.78
133.46
117.69
102.62
89.39
78.64
70.19
63.28
57.00
50.52
43.59
36.53
29.98
24.56
20.49
17.51
15.06
12.51
9.47
5.98
2.43
-0.68
-3.00
-4.46
-5.27
-5.79
-6.32
-7.07
-8.08
-9.27
-10.48
-11.48
-11.94
-11.52
-9.93
-7.14
-3.49
0.43
3.92
6.50
8.01
8.62
8.62
8.17
7.20
5.55
3.14
0.21
-2.72
-5.00
-6.25
-6.44
-5.94
-5.28
-4.84
-4.73
-4.79
-4.80
-4.63
-4.36
-4.20
-4.30
-4.74
-5.39
-6.03
-6.46
-6.60
-6.46
-6.09
-5.60
-5.13
-4.80
-4.75
-5.05
-5.69
-6.46
-6.99
-6.79
-5.47
-2.88
0.81
5.12
9.36
12.89
15.21
16.14
15.78
14.44
12.52
10.43
8.53
7.07
6.24
6.06
6.41
7.02
7.57
7.77
7.42
6.52
5.15
3.52
1.73
-0.16
-2.13
-4.19
-6.31
-8.39
-10.27
-11.78
-12.81
-13.35
-13.50
-13.39
-13.24
-13.16
-13.29
-13.63
-14.06
-14.28
-13.88
-12.42
-9.64
-5.64
-0.97
3.57
7.19
9.37
10.06
9.51
8.14
6.29
4.21
2.05
-0.00
-1.67
-2.71
-2.98
-2.60
-1.91
-1.34
-1.13
-1.34
-1.78
-2.17
-2.33
-2.22
-1.94
-1.72
-1.78
-2.24
-3.14
-4.40
-5.85
-7.29
-8.48
-9.28
-9.70
-9.95
-10.32
-11.08
-12.30
-13.74
-14.90
-15.18
-13.77
-10.26
-4.73
2.25
9.85
17.16
23.41
28.11
31.07
32.32
32.05
30.52
28.11
25.21
22.24
19.54
17.38
15.83
14.84
14.18
13.62
12.96
12.15
11.22
10.22
9.15
7.93
6.41
4.50
2.19
-0.36
-2.92
-5.36
-7.63
-9.82
-12.07
-14.57
-17.46
-20.81
-24.49
-28.15
-31.15
-32.69
-32.01
-28.72
-22.97
-15.45
-7.16
0.87
7.88
13.40
17.27
19.47
20.08
19.29
17.46
15.09
12.72
10.80
9.53
8.88
8.58
8.39
8.11
7.68
7.11
6.45
5.64
4.63
3.32
1.70
-0.21
-2.32
-4.55
-6.87
-9.23
-11.65
-14.17
-16.90
-19.92
-23.22
-26.56
-29.38
-30.91
-30.40
-27.45
-22.11
-15.00
-7.02
0.83
7.77
13.24
16.98
18.96
19.34
18.48
16.84
14.93
13.17
11.78
10.79
10.13
9.65
9.25
8.83
8.29
7.52
6.39
4.86
2.97
0.86
-1.28
-3.29
-5.13
-6.85
-8.57
-10.52
-12.92
-15.94
-19.62
-23.78
-27.94
-31.40
-33.34
-33.05
-30.13
-24.63
-17.12
-8.54
0.05
7.66
13.60
17.57
19.68
20.28
19.82
18.72
17.25
15.60
13.97
12.55
11.51
10.92
10.69
10.56
10.23
9.44
8.11
6.32
4.30
2.28
0.47
-1.08
-2.44
-3.79
-5.38
-7.42
-10.08
-13.37
-17.26
-21.57
-26.01
-30.07
-33.03
-34.06
-32.48
-28.04
-21.06
-12.44
-3.39
4.97
11.82
16.81
19.97
21.56
21.90
21.31
20.08
18.51
16.86
15.35
14.14
13.29
12.73
12.32
11.90
11.31
10.49
9.44
8.19
6.75
5.10
3.18
0.97
-1.50
-4.12
-6.79
-9.48
-12.23
-15.20
-18.57
-22.39
-26.50
-30.43
-33.50
-34.90
-33.95
-30.36
-24.31
-16.48
-7.84
0.57
7.89
13.61
17.56
19.86
20.74
20.53
19.48
17.86
15.93
13.99
12.37
11.32
10.95
11.13
11.55
11.82
11.62
10.80
9.46
7.81
6.07
4.34
2.62
0.76
-1.41
-4.06
-7.34
-11.31
-15.91
-20.89
-25.79
-29.96
-32.65
-33.17
-31.10
-26.38
-19.45
-11.17
-2.62
5.16
11.49
16.07
18.98
20.46
20.72
19.92
18.20
15.87
13.34
11.11
9.52
8.63
8.24
8.01
7.63
6.91
5.84
4.51
3.05
1.60
0.24
-0.97
-2.09
-3.30
-4.86
-7.04
-10.04
-13.80
-18.02
-22.10
-25.26
-26.71
-25.87
-22.56
-17.09
-10.16
-2.67
4.50
10.71
15.59
19.00
20.98
21.64
21.20
19.92
18.19
16.36
14.74
13.44
12.42
11.46
10.39
9.06
7.49
5.80
4.13
2.60
1.19
-0.15
-1.57
-3.23
-5.28
-7.89
-11.16
-15.02
-19.10
-22.73
-25.01
-25.12
-22.63
-17.69
-11.01
-3.65
3.34
9.20
13.57
16.40
17.80
17.89
16.80
14.71
11.91
8.78
5.74
3.16
1.19
-0.20
-1.20
-2.10
-3.17
-4.54
-6.22
-8.05
-9.86
-11.53
-13.13
-14.88
-17.14
-20.21
-24.22
-28.98
-33.95
-38.28
-41.05
-41.43
-38.96
-33.67
-26.08
-17.07
-7.62
1.34
9.14
15.38
19.93
22.83
24.26
24.49
23.82
22.59
21.13
19.70
18.50
17.57
16.84
16.12
15.19
13.93
12.35
10.55
8.70
6.90
5.08
3.09
0.72
-2.17
-5.66
-9.78
-14.51
-19.78
-25.32
-30.60
-34.86
-37.18
-36.79
-33.33
-26.98
-18.45
-8.80
0.88
9.69
17.11
22.95
27.23
30.05
31.55
31.85
31.18
29.87
28.28
26.74
25.41
24.27
23.20
22.06
20.79
19.43
18.07
16.71
15.28
13.62
11.58
9.05
6.06
2.79
-0.51
-3.58
-6.27
-8.64
-10.96
-13.61
-17.03
-21.49
-26.96
-33.08
-39.11
-44.02
-46.69
-46.22
-42.19
-34.88
-25.18
-14.39
-3.79
5.70
13.63
19.93
24.74
28.22
30.49
31.72
32.13
31.98
31.56
30.98
30.28
29.42
28.39
27.27
26.17
25.15
24.22
23.31
22.32
21.18
19.89
18.42
16.72
14.71
12.29
9.45
6.29
2.96
-0.31
-3.39
-6.20
-8.78
-11.25
-13.77
-16.57
-19.85
-23.80
-28.41
-33.41
-38.19
-41.88
-43.52
-42.37
-38.17
-31.22
-22.37
-12.75
-3.45
4.69
11.22
16.06
19.33
21.26
22.11
22.11
21.52
20.64
19.70
18.88
18.23
17.76
17.39
17.05
16.71
16.34
15.96
15.54
15.02
14.34
13.46
12.33
11.01
9.53
7.99
6.44
4.90
3.34
1.67
-0.18
-2.30
-4.69
-7.28
-9.92
-12.48
-14.94
-17.46
-20.31
-23.78
-27.91
-32.32
-36.24
-38.67
-38.75
-36.04
-30.68
-23.30
-14.84
-6.24
1.77
8.67
14.25
18.45
21.31
22.94
23.48
23.12
22.09
20.68
19.17
17.81
16.72
15.91
15.31
14.83
14.42
14.09
13.83
13.55
13.14
12.44
11.33
9.84
8.08
6.24
4.47
2.83
1.26
-0.37
-2.16
-4.17
-6.32
-8.50
-10.58
-12.49
-14.33
-16.25
-18.45
-21.11
-24.23
-27.62
-30.85
-33.29
-34.23
-33.10
-29.62
-23.96
-16.77
-8.98
-1.61
4.58
9.19
12.23
13.92
14.56
14.37
13.56
12.30
10.86
9.54
8.62
8.23
8.32
8.65
8.94
8.99
8.74
8.31
7.88
7.57
7.36
7.07
6.44
5.31
3.65
1.66
-0.39
-2.23
-3.75
-5.01
-6.24
-7.71
-9.65
-12.20
-15.42
-19.21
-23.36
-27.53
-31.17
-33.62
-34.21
-32.48
-28.34
-22.14
-14.69
-6.97
0.09
5.86
10.09
12.85
14.36
14.85
14.53
13.55
12.14
10.56
9.07
7.90
7.17
6.88
6.96
7.24
7.57
7.78
7.75
7.37
6.64
5.56
4.19
2.57
0.82
-0.92
-2.47
-3.71
-4.67
-5.57
-6.80
-8.71
-11.50
-15.11
-19.21
-23.30
-26.79
-29.09
-29.68
-28.24
-24.73
-19.42
-12.93
-6.06
0.39
5.82
9.89
12.52
13.84
14.09
13.55
12.54
11.34
10.15
9.08
8.14
7.29
6.50
5.76
5.09
4.48
3.92
3.33
2.65
1.83
0.85
-0.32
-1.66
-3.14
-4.71
-6.30
-7.90
-9.59
-11.55
-13.99
-17.07
-20.68
-24.41
-27.56
-29.38
-29.22
-26.82
-22.34
-16.30
-9.48
-2.69
3.42
8.38
11.97
14.15
15.01
14.71
13.50
11.73
9.79
8.07
6.84
6.21
6.07
6.18
6.24
6.02
5.40
4.37
3.07
1.63
0.21
-1.14
-2.39
-3.62
-4.92
-6.45
-8.38
-10.90
-14.15
-18.09
-22.39
-26.43
-29.31
-30.18
-28.45
-24.11
-17.68
-10.09
-2.33
4.78
10.71
15.22
18.22
19.66
19.58
18.14
15.76
13.02
10.56
8.82
7.94
7.70
7.68
7.45
6.76
5.56
3.96
2.14
0.27
-1.52
-3.12
-4.52
-5.85
-7.37
-9.44
-12.38
-16.23
-20.71
-25.14
-28.66
-30.37
-29.60
-26.13
-20.21
-12.60
-4.32
3.57
10.26
15.32
18.69
20.56
21.16
20.67
19.27
17.24
14.93
12.75
10.98
9.70
8.76
7.87
6.79
5.44
3.92
2.41
1.09
0.06
-0.76
-1.53
-2.54
-4.07
-6.41
-9.72
-13.99
-18.91
-23.88
-28.04
-30.40
-30.18
-26.99
-21.08
-13.19
-4.42
4.14
11.60
17.48
21.58
23.95
24.72
24.17
22.65
20.64
18.61
16.92
15.71
14.88
14.20
13.40
12.30
10.88
9.17
7.27
5.29
3.33
1.50
-0.14
-1.56
-2.87
-4.36
-6.41
-9.36
-13.38
-18.23
-23.20
-27.25
-29.28
-28.47
-24.61
-18.14
-10.01
-1.36
6.81
13.84
19.39
23.37
25.76
26.61
26.07
24.42
22.11
19.62
17.40
15.72
14.62
14.02
13.67
13.33
12.75
11.78
10.37
8.59
6.65
4.75
3.05
1.60
0.30
-1.11
-2.96
-5.63
-9.39
-14.31
-20.06
-25.88
-30.70
-33.38
-33.05
-29.48
-23.08
-14.83
-5.96
2.45
9.63
15.20
19.09
21.41
22.34
22.04
20.79
18.91
16.80
14.89
13.49
12.70
12.38
12.27
12.01
11.36
10.31
8.98
7.62
6.39
5.30
4.18
2.77
0.83
-1.75
-5.02
-8.91
-13.32
-18.02
-22.56
-26.25
-28.23
-27.69
-24.24
-18.10
-10.09
-1.42
6.73
13.50
18.51
21.75
23.41
23.70
22.85
21.08
18.72
16.22
14.01
12.44
11.65
11.51
11.69
11.80
11.48
10.58
9.13
7.34
5.40
3.46
1.50
-0.54
-2.78
-5.30
-8.18
-11.52
-15.47
-20.09
-25.18
-30.16
-34.08
-35.89
-34.81
-30.66
-23.96
-15.75
-7.27
0.43
6.69
11.27
14.21
15.66
15.78
14.73
12.74
10.16
7.47
5.13
3.46
2.53
2.23
2.30
2.50
2.71
2.92
3.16
3.48
3.84
4.16
4.36
4.40
4.23
3.81
2.99
1.59
-0.62
-3.72
-7.57
-11.70
-15.34
-17.61
-17.79
-15.48
-10.86
-4.57
2.47
9.32
15.24
19.86
23.08
24.97
25.62
25.12
23.55
21.15
18.33
15.60
13.49
12.29
12.00
12.31
12.78
12.97
12.59
11.56
9.92
7.88
5.66
3.52
1.62
-0.01
-1.48
-2.99
-4.79
-7.11
-10.16
-14.05
-18.73
-23.82
-28.59
-32.01
-33.05
-31.04
-26.00
-18.67
-10.27
-2.10
4.87
10.13
13.64
15.65
16.43
16.25
15.33
13.88
12.15
10.41
8.90
7.77
7.04
6.62
6.33
6.00
5.49
4.78
3.87
2.83
1.73
0.62
-0.51
-1.70
-3.07
-4.77
-6.97
-9.79
-13.25
-17.22
-21.34
-25.02
-27.53
-28.15
-26.36
-22.11
-15.86
-8.48
-1.02
5.56
10.63
13.97
15.68
16.04
15.37
13.96
12.10
10.09
8.22
6.73
5.76
5.32
5.30
5.48
5.62
5.48
4.91
3.87
2.46
0.79
-0.97
-2.72
-4.46
-6.24
-8.15
-10.33
-12.90
-16.00
-19.65
-23.70
-27.65
-30.73
-32.02
-30.81
-26.88
-20.59
-12.84
-4.73
2.70
8.77
13.15
15.86
17.11
17.23
16.55
15.38
13.97
12.56
11.33
10.43
9.96
9.88
10.05
10.22
10.08
9.44
8.22
6.56
4.70
2.89
1.28
-0.12
-1.41
-2.77
-4.43
-6.57
-9.35
-12.78
-16.75
-20.89
-24.60
-27.04
-27.44
-25.28
-20.54
-13.72
-5.73
2.40
9.77
15.76
20.05
22.54
23.32
22.67
20.96
18.74
16.51
14.69
13.47
12.86
12.66
12.65
12.54
12.10
11.19
9.78
8.03
6.18
4.45
2.94
1.62
0.34
-1.06
-2.67
-4.56
-6.79
-9.45
-12.65
-16.41
-20.49
-24.43
-27.49
-28.88
-27.96
-24.47
-18.65
-11.23
-3.21
4.36
10.69
15.34
18.25
19.62
19.76
18.99
17.60
15.88
14.09
12.43
11.02
9.89
9.05
8.47
8.13
7.98
7.93
7.83
7.54
6.96
6.07
4.92
3.59
2.12
0.57
-1.06
-2.76
-4.55
-6.51
-8.81
-11.67
-15.18
-19.21
-23.29
-26.64
-28.38
-27.83
-24.77
-19.50
-12.79
-5.58
1.25
7.05
11.49
14.46
16.02
16.34
15.68
14.39
12.85
11.38
10.17
9.28
8.69
8.37
8.29
8.40
8.57
8.53
7.98
6.78
5.00
2.97
1.06
-0.46
-1.61
-2.62
-3.80
-5.38
-7.45
-10.03
-13.09
-16.61
-20.44
-24.14
-27.00
-28.15
-26.83
-22.76
-16.29
-8.36
-0.26
6.77
11.94
15.00
16.23
16.20
15.49
14.46
13.28
12.05
10.86
9.88
9.20
8.75
8.34
7.77
6.95
6.02
5.23
4.75
4.58
4.45
4.06
3.17
1.67
-0.33
-2.69
-5.22
-7.83
-10.48
-13.22
-16.14
-19.29
-22.54
-25.53
-27.60
-28.08
-26.47
-22.67
-17.09
-10.46
-3.63
2.65
7.89
11.83
14.35
15.48
15.33
14.13
12.24
10.07
8.02
6.36
5.25
4.69
4.53
4.60
4.64
4.44
3.85
2.78
1.29
-0.47
-2.32
-4.06
-5.60
-6.93
-8.20
-9.62
-11.47
-13.92
-17.06
-20.67
-24.22
-26.89
-27.77
-26.16
-21.85
-15.27
-7.39
0.59
7.56
12.80
16.10
17.61
17.71
16.81
15.27
13.42
11.52
9.86
8.64
7.96
7.72
7.67
7.49
6.84
5.56
3.74
1.65
-0.35
-2.00
-3.22
-4.21
-5.26
-6.73
-8.83
-11.68
-15.24
-19.34
-23.68
-27.74
-30.80
-32.05
-30.83
-26.85
-20.39
-12.25
-3.59
4.43
10.87
15.24
17.49
17.96
17.14
15.54
13.57
11.49
9.53
7.92
6.84
6.43
6.57
6.93
7.02
6.47
5.21
3.47
1.69
0.22
-0.81
-1.57
-2.43
-3.74
-5.79
-8.74
-12.61
-17.21
-22.12
-26.61
-29.77
-30.78
-29.11
-24.78
-18.32
-10.65
-2.88
4.07
9.59
13.52
16.05
17.57
18.37
18.61
18.28
17.34
15.90
14.26
12.79
11.78
11.27
11.03
10.67
9.91
8.65
7.00
5.20
3.47
1.85
0.28
-1.41
-3.37
-5.74
-8.57
-11.88
-15.65
-19.73
-23.80
-27.28
-29.45
-29.57
-27.17
-22.28
-15.49
-7.79
-0.20
6.49
11.90
15.98
18.84
20.58
21.21
20.76
19.46
17.70
15.99
14.71
14.00
13.70
13.47
13.06
12.34
11.35
10.19
8.95
7.61
6.11
4.40
2.46
0.30
-2.04
-4.53
-7.22
-10.20
-13.60
-17.45
-21.59
-25.50
-28.38
-29.34
-27.71
-23.36
-16.78
-8.96
-1.03
6.07
11.82
16.05
18.85
20.36
20.74
20.19
18.96
17.41
15.89
14.71
14.03
13.85
14.00
14.24
14.29
13.94
13.05
11.63
9.83
7.86
5.90
4.08
2.41
0.75
-1.07
-3.29
-6.09
-9.60
-13.77
-18.29
-22.56
-25.80
-27.21
-26.21
-22.68
-17.00
-9.94
-2.44
4.63
10.63
15.19
18.18
19.65
19.80
18.93
17.45
15.76
14.18
12.90
12.00
11.44
11.15
11.02
10.93
10.73
10.24
9.35
8.02
6.35
4.49
2.57
0.60
-1.50
-3.91
-6.80
-10.28
-14.31
-18.66
-22.91
-26.50
-28.78
-29.16
-27.30
-23.20
-17.28
-10.27
-3.02
3.71
9.41
13.84
16.98
18.95
19.90
20.04
19.58
18.78
17.88
17.03
16.29
15.57
14.78
13.88
12.85
11.78
10.66
9.47
8.12
6.55
4.77
2.83
0.80
-1.35
-3.70
-6.40
-9.56
-13.19
-17.22
-21.48
-25.63
-29.22
-31.66
-32.32
-30.77
-26.91
-21.07
-13.98
-6.50
0.59
6.75
11.76
15.57
18.25
19.87
20.51
20.33
19.55
18.50
17.48
16.69
16.21
15.95
15.75
15.43
14.91
14.21
13.39
12.51
11.57
10.46
9.06
7.29
5.18
2.86
0.47
-1.87
-4.18
-6.58
-9.28
-12.49
-16.34
-20.79
-25.52
-29.92
-33.19
-34.49
-33.24
-29.33
-23.21
-15.70
-7.86
-0.57
5.61
10.49
14.17
16.82
18.64
19.72
20.16
20.12
19.86
19.67
19.76
20.13
20.61
20.91
20.78
20.15
19.15
18.02
17.02
16.26
15.68
15.10
14.30
13.11
11.46
9.41
7.09
4.67
2.28
0.00
-2.16
-4.27
-6.38
-8.58
-10.96
-13.70
-16.97
-20.87
-25.32
-29.91
-33.94
-36.55
-36.96
-34.79
-30.19
-23.73
-16.30
-8.78
-1.86
4.07
8.81
12.33
14.66
15.90
16.25
15.99
15.48
15.03
14.81
14.82
14.89
14.86
14.58
14.06
13.42
12.80
12.31
11.97
11.68
11.29
10.67
9.70
8.29
6.46
4.26
1.82
-0.66
-2.94
-4.86
-6.36
-7.59
-8.85
-10.51
-12.86
-16.00
-19.77
-23.77
-27.35
-29.81
-30.51
-29.06
-25.40
-19.90
-13.26
-6.27
0.32
5.95
10.29
13.18
14.61
14.75
13.93
12.62
11.30
10.34
9.88
9.82
9.92
9.94
9.77
9.41
8.98
8.60
8.33
8.12
7.81
7.19
6.10
4.47
2.36
-0.03
-2.46
-4.70
-6.62
-8.25
-9.74
-11.39
-13.51
-16.33
-19.85
-23.79
-27.54
-30.36
-31.54
-30.62
-27.56
-22.67
-16.55
-9.92
-3.41
2.49
7.48
11.42
14.25
15.92
16.50
16.13
15.08
13.72
12.46
11.64
11.45
11.83
12.57
13.32
13.78
13.74
13.19
12.27
11.14
9.92
8.63
7.17
5.43
3.38
1.11
-1.22
-3.45
-5.50
-7.40
-9.28
-11.27
-13.51
-16.14
-19.26
-22.94
-27.09
-31.37
-35.16
-37.67
-38.10
-36.00
-31.39
-24.81
-17.18
-9.42
-2.31
3.73
8.53
12.10
14.48
15.72
15.95
15.44
14.56
13.71
13.21
13.21
13.66
14.35
15.00
15.33
15.19
14.55
13.50
12.26
11.01
9.85
8.74
7.55
6.11
4.32
2.25
0.05
-2.10
-4.14
-6.11
-8.19
-10.54
-13.29
-16.42
-19.83
-23.37
-26.79
-29.76
-31.82
-32.45
-31.20
-27.91
-22.83
-16.57
-9.91
-3.54
2.11
6.90
10.85
13.98
16.24
17.54
17.87
17.41
16.52
15.58
14.88
14.52
14.41
14.38
14.31
14.14
13.88
13.55
13.11
12.50
11.65
10.57
9.29
7.88
6.34
4.59
2.57
0.24
-2.30
-4.87
-7.32
-9.62
-11.87
-14.35
-17.34
-20.92
-24.95
-28.97
-32.29
-34.17
-34.00
-31.56
-27.02
-20.98
-14.19
-7.43
-1.25
4.09
8.48
11.93
14.41
15.83
16.16
15.54
14.26
12.78
11.52
10.77
10.58
10.80
11.14
11.34
11.24
10.85
10.23
9.47
8.53
7.35
5.80
3.87
1.66
-0.63
-2.76
-4.60
-6.19
-7.76
-9.61
-12.03
-15.15
-18.89
-22.88
-26.53
-29.13
-29.94
-28.47
-24.59
-18.62
-11.30
-3.58
3.62
9.58
13.91
16.52
17.60
17.52
16.73
15.70
14.77
14.11
13.71
13.44
13.13
12.69
12.14
11.52
10.93
10.41
9.93
9.43
8.80
7.85
6.42
4.38
1.77
-1.23
-4.32
-7.25
-9.93
-12.48
-15.12
-18.08
-21.44
-25.09
-28.71
-31.79
-33.68
-33.76
-31.56
-27.00
-20.48
-12.80
-4.93
2.25
8.20
12.71
15.81
17.62
18.29
17.99
17.02
15.75
14.60
13.85
13.59
13.73
14.01
14.21
14.17
13.84
13.27
12.48
11.51
10.28
8.72
6.76
4.43
1.91
-0.60
-2.87
-4.86
-6.72
-8.78
-11.41
-14.87
-19.19
-24.06
-28.90
-32.90
-35.21
-35.16
-32.43
-27.20
-20.14
-12.14
-4.15
3.13
9.30
14.22
17.91
20.40
21.78
22.15
21.77
20.99
20.15
19.53
19.19
19.03
18.82
18.40
17.69
16.78
15.84
15.03
14.37
13.74
12.84
11.42
9.29
6.54
3.42
0.33
-2.41
-4.65
-6.49
-8.31
-10.56
-13.63
-17.68
-22.47
-27.40
-31.57
-34.00
-33.98
-31.20
-25.90
-18.77
-10.71
-2.62
4.82
11.13
16.04
19.43
21.26
21.65
20.90
19.49
18.01
16.98
16.74
17.29
18.36
19.48
20.17
20.15
19.38
18.01
16.38
14.80
13.51
12.59
11.91
11.23
10.25
8.72
6.54
3.80
0.75
-2.36
-5.37
-8.23
-11.00
-13.77
-16.68
-19.85
-23.34
-27.08
-30.72
-33.61
-34.91
-33.86
-30.13
-23.99
-16.23
-7.90
0.02
6.82
12.15
15.92
18.19
19.08
18.81
17.69
16.15
14.64
13.60
13.29
13.70
14.57
15.44
15.87
15.59
14.60
13.18
11.70
10.48
9.58
8.92
8.27
7.40
6.18
4.55
2.54
0.22
-2.28
-4.81
-7.26
-9.58
-11.89
-14.38
-17.25
-20.59
-24.20
-27.60
-30.14
-31.15
-30.17
-27.07
-22.11
-15.81
-8.90
-2.04
4.18
9.34
13.19
15.60
16.63
16.47
15.49
14.12
12.79
11.80
11.24
11.04
11.03
11.02
10.90
10.62
10.17
9.58
8.81
7.80
6.54
5.02
3.28
1.42
-0.50
-2.41
-4.32
-6.29
-8.43
-10.89
-13.83
-17.32
-21.28
-25.37
-29.01
-31.47
-32.06
-30.35
-26.34
-20.47
-13.50
-6.26
0.49
6.24
10.74
13.94
15.93
16.89
17.07
16.71
16.04
15.25
14.44
13.68
12.98
12.38
11.87
11.45
11.07
10.71
10.34
9.88
9.27
8.37
7.02
5.12
2.70
-0.06
-2.91
-5.57
-7.94
-10.04
-12.11
-14.44
-17.32
-20.89
-25.06
-29.47
-33.46
-36.18
-36.87
-35.03
-30.64
-24.15
-16.38
-8.26
-0.61
5.99
11.22
14.96
17.26
18.25
18.18
17.37
16.23
15.16
14.48
14.35
14.65
15.11
15.39
15.24
14.63
13.72
12.76
11.95
11.25
10.47
9.32
7.61
5.33
2.65
-0.10
-2.65
-4.89
-6.91
-8.97
-11.37
-14.38
-18.05
-22.21
-26.44
-30.14
-32.61
-33.27
-31.70
-27.87
-22.11
-15.04
-7.47
-0.18
6.26
11.56
15.62
18.50
20.29
21.07
20.99
20.31
19.35
18.42
17.76
17.41
17.30
17.29
17.29
17.32
17.42
17.61
17.79
17.81
17.46
16.65
15.38
13.79
12.06
10.31
8.61
6.93
5.16
3.21
1.02
-1.41
-3.98
-6.56
-9.01
-11.27
-13.35
-15.40
-17.66
-20.40
-23.79
-27.87
-32.36
-36.67
-39.95
-41.33
-40.13
-36.16
-29.76
-21.75
-13.17
-4.98
2.10
7.69
11.72
14.32
15.72
16.19
16.07
15.65
15.20
14.87
14.72
14.74
14.88
15.08
15.33
15.59
15.83
15.97
15.93
15.64
15.10
14.35
13.47
12.55
11.60
10.54
9.21
7.47
5.27
2.69
-0.08
-2.77
-5.19
-7.25
-8.99
-10.63
-12.42
-14.64
-17.46
-20.92
-24.85
-28.86
-32.33
-34.56
-34.90
-32.98
-28.79
-22.74
-15.53
-7.96
-0.79
5.41
10.26
13.56
15.29
15.61
14.86
13.51
12.12
11.11
10.69
10.81
11.23
11.64
11.85
11.83
11.65
11.44
11.25
11.00
10.53
9.63
8.22
6.35
4.20
2.02
-0.01
-1.81
-3.40
-4.92
-6.54
-8.48
-10.97
-14.14
-17.96
-22.15
-26.08
-28.93
-29.85
-28.31
-24.27
-18.22
-11.00
-3.57
3.29
9.05
13.46
16.44
18.02
18.34
17.65
16.33
14.79
13.40
12.38
11.75
11.37
11.07
10.70
10.18
9.54
8.81
8.02
7.11
6.00
4.62
2.92
0.97
-1.14
-3.29
-5.37
-7.40
-9.43
-11.62
-14.18
-17.28
-21.00
-25.17
-29.30
-32.68
-34.48
-34.09
-31.27
-26.27
-19.71
-12.42
-5.23
1.22
6.50
10.46
13.18
14.92
15.97
16.57
16.83
16.78
16.41
15.79
15.03
14.26
13.56
12.90
12.29
11.76
11.38
11.16
10.94
10.42
9.30
7.41
4.86
1.97
-0.88
-3.43
-5.63
-7.61
-9.58
-11.81
-14.51
-17.79
-21.55
-25.41
-28.66
-30.51
-30.24
-27.54
-22.60
-16.05
-8.76
-1.56
4.86
10.11
14.00
16.52
17.81
18.08
17.64
16.81
15.88
15.07
14.53
14.35
14.48
14.79
15.08
15.12
14.77
14.04
13.04
11.96
10.88
9.77
8.48
6.86
4.87
2.61
0.30
-1.86
-3.80
-5.64
-7.65
-10.17
-13.41
-17.41
-21.93
-26.43
-30.16
-32.31
-32.26
-29.74
-24.98
-18.63
-11.50
-4.39
2.10
7.60
11.90
14.89
16.55
17.01
16.55
15.61
14.67
14.08
13.97
14.24
14.66
14.97
15.03
14.78
14.25
13.48
12.50
11.30
9.84
8.15
6.32
4.46
2.71
1.15
-0.25
-1.64
-3.26
-5.35
-8.10
-11.55
-15.60
-19.95
-24.15
-27.57
-29.51
-29.36
-26.82
-22.08
-15.76
-8.81
-2.20
3.44
7.80
10.91
12.92
13.96
14.13
13.56
12.51
11.37
10.52
10.16
10.27
10.61
10.87
10.84
10.47
9.84
9.10
8.35
7.58
6.73
5.72
4.51
3.13
1.60
-0.08
-1.96
-4.19
-6.90
-10.14
-13.84
-17.78
-21.65
-25.03
-27.43
-28.41
-27.57
-24.77
-20.14
-14.13
-7.46
-0.83
5.16
10.12
13.91
16.54
18.07
18.64
18.43
17.67
16.68
15.73
15.02
14.59
14.37
14.22
14.02
13.70
13.26
12.70
11.98
11.00
9.62
7.76
5.45
2.87
0.32
-1.94
-3.80
-5.40
-7.07
-9.24
-12.20
-16.04
-20.56
-25.27
-29.52
-32.57
-33.78
-32.75
-29.44
-24.18
-17.62
-10.53
-3.62
2.59
7.85
12.08
15.32
17.66
19.19
20.01
20.28
20.19
19.94
19.70
19.56
19.52
19.50
19.44
19.27
19.00
18.69
18.41
18.16
17.89
17.49
16.80
15.74
14.31
12.61
10.75
8.80
6.73
4.48
1.97
-0.71
-3.40
-5.84
-7.90
-9.63
-11.26
-13.16
-15.66
-18.95
-23.02
-27.71
-32.66
-37.32
-40.98
-42.86
-42.33
-39.13
-33.49
-26.12
-17.98
-10.01
-2.87
3.10
7.82
11.39
13.96
15.68
16.72
17.30
17.65
17.97
18.40
18.95
19.57
20.13
20.53
20.71
20.69
20.52
20.31
20.13
19.95
19.68
19.12
18.16
16.80
15.18
13.56
12.12
10.94
9.87
8.69
7.14
5.10
2.59
-0.25
-3.21
-6.09
-8.70
-10.95
-12.80
-14.38
-15.92
-17.80
-20.38
-23.87
-28.22
-33.02
-37.52
-40.80
-42.02
-40.64
-36.64
-30.47
-22.97
-15.09
-7.65
-1.21
3.97
7.87
10.57
12.27
13.16
13.50
13.52
13.43
13.39
13.51
13.82
14.32
14.92
15.51
15.93
16.05
15.83
15.29
14.51
13.61
12.70
11.80
10.85
9.78
8.54
7.10
5.50
3.82
2.12
0.40
-1.39
-3.32
-5.44
-7.78
-10.39
-13.29
-16.55
-20.10
-23.70
-26.87
-28.99
-29.45
-27.90
-24.29
-19.03
-12.73
-6.13
0.15
5.65
10.09
13.33
15.36
16.25
16.19
15.47
14.47
13.55
12.95
12.74
12.81
12.95
12.96
12.72
12.20
11.46
10.64
9.88
9.23
8.68
8.05
7.11
5.66
3.64
1.23
-1.28
-3.61
-5.64
-7.46
-9.28
-11.35
-13.82
-16.75
-20.11
-23.81
-27.59
-31.05
-33.54
-34.44
-33.29
-30.00
-24.89
-18.61
-11.85
-5.24
0.77
5.92
10.05
13.07
14.99
15.89
15.93
15.38
14.56
13.79
13.27
13.09
13.18
13.37
13.49
13.43
13.15
12.70
12.09
11.39
10.62
9.81
8.96
7.97
6.72
5.01
2.75
0.05
-2.79
-5.44
-7.66
-9.48
-11.22
-13.32
-16.21
-20.04
-24.61
-29.35
-33.43
-36.01
-36.41
-34.34
-29.92
-23.71
-16.50
-9.11
-2.24
3.69
8.48
12.12
14.66
16.23
16.96
17.04
16.72
16.25
15.83
15.60
15.57
15.65
15.71
15.63
15.38
14.98
14.53
14.08
13.62
13.06
12.24
11.04
9.40
7.36
5.03
2.57
0.12
-2.20
-4.33
-6.29
-8.21
-10.32
-12.94
-16.32
-20.50
-25.16
-29.67
-33.16
-34.82
-34.13
-31.00
-25.77
-19.08
-11.71
-4.36
2.36
8.08
12.60
15.86
17.95
19.05
19.35
19.09
18.43
17.53
16.54
15.63
14.96
14.66
14.76
15.18
15.77
16.32
16.64
16.59
16.04
14.98
13.44
11.56
9.51
7.47
5.53
3.67
1.81
-0.15
-2.26
-4.52
-6.91
-9.40
-12.00
-14.68
-17.44
-20.29
-23.24
-26.35
-29.55
-32.57
-34.86
-35.71
-34.55
-31.21
-26.00
-19.53
-12.57
-5.70
0.72
6.44
11.25
14.89
17.15
17.96
17.50
16.19
14.54
13.04
12.02
11.58
11.62
11.91
12.18
12.28
12.18
11.97
11.75
11.49
11.09
10.33
9.09
7.39
5.38
3.26
1.19
-0.81
-2.79
-4.84
-7.07
-9.57
-12.43
-15.71
-19.34
-23.06
-26.34
-28.55
-29.06
-27.53
-23.97
-18.77
-12.63
-6.22
-0.13
5.29
9.82
13.39
15.91
17.34
17.71
17.18
16.02
14.55
13.08
11.81
10.82
10.10
9.61
9.29
9.06
8.83
8.51
7.99
7.23
6.20
4.92
3.37
1.57
-0.45
-2.64
-4.93
-7.31
-9.87
-12.76
-16.13
-19.99
-24.15
-28.20
-31.55
-33.59
-33.75
-31.71
-27.45
-21.29
-13.89
-6.07
1.36
7.79
12.90
16.57
18.82
19.71
19.42
18.26
16.69
15.29
14.48
14.45
15.04
15.86
16.43
16.39
15.59
14.14
12.32
10.48
8.93
7.75
6.78
5.74
4.34
2.42
0.05
-2.63
-5.49
-8.45
-11.52
-14.76
-18.21
-21.87
-25.71
-29.64
-33.38
-36.47
-38.25
-38.15
-35.82
-31.33
-25.13
-17.89
-10.27
-2.81
4.06
10.04
14.89
18.48
20.80
21.95
22.11
21.54
20.47
19.20
18.09
17.41
17.36
17.90
18.82
19.73
20.34
20.43
20.02
19.19
18.08
16.74
15.17
13.34
11.28
9.07
6.83
4.62
2.46
0.24
-2.13
-4.72
-7.46
-10.25
-13.02
-15.84
-18.93
-22.60
-26.99
-31.92
-36.74
-40.50
-42.21
-41.21
-37.37
-31.16
-23.42
-15.11
-7.02
0.31
6.58
11.67
15.50
18.07
19.52
20.11
20.23
20.24
20.41
20.84
21.41
21.95
22.29
22.38
22.30
22.17
22.08
22.05
21.99
21.77
21.25
20.37
19.13
17.59
15.83
13.90
11.86
9.68
7.33
4.78
2.06
-0.78
-3.56
-6.14
-8.45
-10.51
-12.52
-14.73
-17.43
-20.80
-24.89
-29.51
-34.23
-38.40
-41.24
-41.99
-40.16
-35.68
-28.95
-20.82
-12.28
-4.30
2.44
7.63
11.32
13.80
15.45
16.62
17.51
18.21
18.75
19.17
19.54
19.94
20.39
20.87
21.27
21.49
21.45
21.18
20.74
20.20
19.53
18.69
17.61
16.21
14.52
12.62
10.63
8.69
6.84
5.05
3.20
1.14
-1.23
-3.86
-6.64
-9.39
-12.03
-14.61
-17.30
-20.36
-23.96
-28.05
-32.30
-36.10
-38.74
-39.55
-38.09
-34.30
-28.49
-21.29
-13.51
-5.94
0.80
6.35
10.62
13.70
15.75
16.93
17.39
17.26
16.76
16.16
15.71
15.59
15.84
16.32
16.82
17.14
17.17
16.94
16.50
15.97
15.34
14.58
13.58
12.25
10.56
8.53
6.28
3.91
1.54
-0.75
-2.94
-4.99
-6.93
-8.85
-10.87
-13.19
-15.96
-19.23
-22.85
-26.42
-29.36
-31.01
-30.78
-28.33
-23.69
-17.32
-9.99
-2.58
4.17
9.78
14.06
17.02
18.75
19.32
18.86
17.64
16.11
14.79
14.12
14.25
14.97
15.85
16.43
16.43
15.85
14.88
13.76
12.63
11.49
10.25
8.85
7.28
5.68
4.16
2.73
1.32
-0.27
-2.19
-4.47
-7.06
-9.85
-12.77
-15.88
-19.29
-23.07
-27.10
-31.03
-34.32
-36.34
-36.57
-34.75
-30.91
-25.42
-18.82
-11.74
-4.72
1.80
7.47
12.05
15.34
17.29
18.02
17.86
17.28
16.70
16.39
16.38
16.54
16.71
16.78
16.75
16.66
16.55
16.40
16.12
15.67
14.99
14.07
12.93
11.57
10.05
8.41
6.71
4.95
3.10
1.12
-1.03
-3.28
-5.55
-7.75
-9.88
-12.03
-14.32
-16.86
-19.73
-22.99
-26.65
-30.63
-34.64
-38.10
-40.26
-40.33
-37.82
-32.77
-25.75
-17.70
-9.58
-2.15
4.19
9.33
13.33
16.28
18.29
19.45
19.93
19.99
19.85
19.75
19.80
20.01
20.34
20.72
21.07
21.33
21.42
21.29
20.94
20.42
19.88
19.47
19.23
19.03
18.61
17.67
16.04
13.77
11.15
8.54
6.21
4.21
2.40
0.56
-1.48
-3.71
-6.00
-8.18
-10.16
-11.97
-13.78
-15.79
-18.14
-20.94
-24.17
-27.76
-31.64
-35.63
-39.40
-42.47
-44.16
-43.86
-41.16
-36.07
-29.06
-20.93
-12.57
-4.74
2.04
7.55
11.76
14.75
16.65
17.64
17.91
17.70
17.26
16.86
16.72
16.95
17.53
18.29
19.00
19.44
19.55
19.36
18.96
18.42
17.74
16.86
15.76
14.50
13.20
11.97
10.86
9.79
8.63
7.23
5.51
3.50
1.27
-1.07
-3.40
-5.70
-7.98
-10.29
-12.68
-15.20
-17.83
-20.58
-23.52
-26.75
-30.39
-34.37
-38.30
-41.48
-43.04
-42.24
-38.76
-32.84
-25.21
-16.84
-8.69
-1.48
4.37
8.78
11.87
13.93
15.24
16.02
16.40
16.44
16.18
15.70
15.12
14.61
14.26
14.06
13.97
13.94
13.96
14.03
14.14
14.18
14.00
13.45
12.45
11.06
9.40
7.61
5.83
4.08
2.36
0.65
-1.09
-2.87
-4.72
-6.67
-8.77
-11.11
-13.76
-16.81
-20.24
-23.95
-27.66
-30.94
-33.23
-33.98
-32.74
-29.37
-24.08
-17.44
-10.21
-3.17
3.13
8.38
12.47
15.39
17.12
17.67
17.15
15.87
14.28
12.85
11.90
11.53
11.63
11.97
12.35
12.61
12.69
12.55
12.19
11.63
10.81
9.73
8.30
6.49
4.29
1.81
-0.77
-3.28
-5.56
-7.63
-9.62
-11.74
-14.23
-17.28
-20.96
-25.16
-29.49
-33.33
-35.91
-36.56
-34.87
-30.88
-25.01
-17.97
-10.55
-3.37
3.14
8.75
13.31
16.75
18.94
19.85
19.57
18.40
16.78
15.20
14.04
13.44
13.29
13.32
13.27
13.02
12.62
12.22
11.93
11.70
11.32
10.50
9.01
6.79
4.01
0.97
-1.95
-4.49
-6.57
-8.32
-10.05
-12.12
-14.84
-18.38
-22.69
-27.46
-32.20
-36.23
-38.83
-39.34
-37.37
-32.90
-26.32
-18.37
-9.89
-1.72
5.50
11.35
15.67
18.48
19.97
20.43
20.24
19.76
19.31
19.05
19.03
19.18
19.34
19.38
19.19
18.72
18.05
17.34
16.72
16.22
15.70
14.86
13.43
11.29
8.59
5.60
2.66
-0.04
-2.48
-4.79
-7.19
-9.87
-13.00
-16.73
-21.08
-25.87
-30.66
-34.70
-37.16
-37.32
-34.80
-29.70
-22.57
-14.30
-5.87
1.87
8.38
13.41
17.05
19.52
21.09
21.94
22.23
22.08
21.68
21.24
20.93
20.79
20.72
20.51
19.91
18.83
17.38
15.81
14.43
13.47
12.93
12.57
12.03
10.98
9.25
6.91
4.16
1.25
-1.64
-4.41
-7.03
-9.49
-11.87
-14.30
-17.05
-20.38
-24.40
-28.89
-33.34
-36.93
-38.79
-38.28
-35.18
-29.71
-22.49
-14.33
-6.05
1.64
8.26
13.54
17.33
19.64
20.59
20.40
19.48
18.26
17.18
16.53
16.41
16.68
17.09
17.35
17.26
16.77
15.97
15.06
14.25
13.66
13.25
12.78
11.97
10.54
8.45
5.85
3.03
0.29
-2.22
-4.51
-6.72
-9.01
-11.54
-14.42
-17.67
-21.24
-24.93
-28.32
-30.79
-31.64
-30.30
-26.58
-20.70
-13.34
-5.36
2.37
9.15
14.52
18.26
20.33
20.89
20.26
18.90
17.38
16.21
15.71
15.92
16.56
17.22
17.49
17.17
16.29
15.07
13.76
12.51
11.31
10.06
8.67
7.04
5.16
3.02
0.61
-2.02
-4.81
-7.63
-10.41
-13.11
-15.83
-18.76
-22.08
-25.82
-29.82
-33.66
-36.75
-38.41
-38.04
-35.31
-30.26
-23.33
-15.30
-7.04
0.65
7.25
12.49
16.32
18.77
19.95
20.02
19.29
18.15
17.05
16.36
16.24
16.64
17.29
17.85
18.04
17.73
16.95
15.86
14.60
13.31
11.95
10.45
8.72
6.73
4.52
2.18
-0.20
-2.57
-4.95
-7.42
-10.12
-13.22
-16.85
-21.03
-25.55
-29.93
-33.45
-35.36
-35.10
-32.46
-27.67
-21.34
-14.20
-7.01
-0.31
5.53
10.35
14.11
16.80
18.44
19.09
18.91
18.14
17.13
16.23
15.63
15.41
15.45
15.60
15.70
15.69
15.55
15.26
14.80
14.11
13.16
11.93
10.39
8.53
6.32
3.81
1.15
-1.46
-3.89
-6.10
-8.28
-10.69
-13.62
-17.22
-21.45
-26.04
-30.49
-34.11
-36.13
-35.90
-33.13
-28.01
-21.18
-13.56
-5.99
0.89
6.77
11.53
15.13
17.59
19.00
19.60
19.65
19.43
19.08
18.64
18.05
17.31
16.51
15.78
15.26
15.02
15.03
15.21
15.38
15.37
15.03
14.24
12.97
11.27
9.23
6.95
4.50
1.97
-0.51
-2.82
-4.86
-6.64
-8.28
-10.00
-11.99
-14.40
-17.28
-20.64
-24.46
-28.61
-32.76
-36.40
-38.88
-39.61
-38.21
-34.65
-29.23
-22.50
-15.09
-7.63
-0.71
5.24
9.93
13.20
15.13
15.88
15.73
14.98
13.98
13.02
12.35
12.09
12.22
12.62
13.09
13.48
13.68
13.66
13.42
12.95
12.17
11.02
9.40
7.29
4.77
2.11
-0.32
-2.24
-3.53
-4.44
-5.50
-7.33
-10.38
-14.66
-19.69
-24.67
-28.71
-31.02
-31.13
-28.90
-24.57
-18.63
-11.79
-4.80
1.65
7.09
11.26
14.14
15.85
16.63
16.73
16.44
15.94
15.40
14.90
14.42
13.94
13.40
12.73
11.94
11.06
10.24
9.61
9.21
8.89
8.36
7.26
5.43
2.92
0.06
-2.76
-5.25
-7.40
-9.40
-11.58
-14.26
-17.61
-21.66
-26.26
-31.01
-35.27
-38.26
-39.17
-37.46
-33.07
-26.42
-18.37
-9.94
-2.00
4.88
10.45
14.71
17.75
19.64
20.49
20.45
19.81
18.99
18.36
18.14
18.31
18.64
18.82
18.65
18.08
17.27
16.37
15.49
14.64
13.76
12.75
11.50
9.96
8.03
5.70
2.97
-0.05
-3.20
-6.30
-9.25
-12.06
-14.85
-17.77
-20.97
-24.55
-28.43
-32.37
-35.88
-38.28
-38.83
-36.96
-32.53
-25.90
-17.82
-9.24
-1.03
6.21
12.17
16.78
20.05
22.06
22.93
22.87
22.18
21.21
20.29
19.68
19.53
19.82
20.39
21.01
21.42
21.42
20.92
19.95
18.63
17.11
15.52
13.97
12.46
10.97
9.38
7.59
5.47
2.99
0.19
-2.79
-5.78
-8.64
-11.34
-13.94
-16.65
-19.72
-23.35
-27.58
-32.10
-36.26
-39.16
-39.91
-37.92
-33.15
-26.10
-17.66
-8.85
-0.55
6.66
12.44
16.66
19.36
20.71
21.00
20.63
20.00
19.46
19.23
19.32
19.66
20.06
20.37
20.47
20.34
20.02
19.62
19.22
18.79
18.21
17.30
15.93
14.07
11.89
9.64
7.55
5.78
4.29
2.93
1.48
-0.20
-2.12
-4.18
-6.23
-8.21
-10.14
-12.18
-14.53
-17.34
-20.69
-24.57
-28.87
-33.27
-37.28
-40.20
-41.27
-39.91
-35.94
-29.72
-21.96
-13.61
-5.49
1.78
7.85
12.51
15.70
17.47
18.01
17.69
16.92
16.09
15.46
15.14
15.12
15.39
15.86
16.44
16.95
17.17
16.96
16.31
15.37
14.35
13.42
12.62
11.86
10.98
9.87
8.47
6.79
4.91
2.86
0.68
-1.61
-3.99
-6.43
-8.93
-11.51
-14.21
-17.16
-20.43
-24.02
-27.75
-31.26
-33.95
-35.18
-34.41
-31.42
-26.38
-19.82
-12.51
-5.19
1.53
7.33
12.04
15.65
18.14
19.49
19.72
18.98
17.57
15.89
14.37
13.32
12.85
12.93
13.41
14.05
14.64
14.99
14.95
14.50
13.69
12.62
11.36
9.92
8.23
6.23
3.94
1.51
-0.89
-3.11
-5.12
-7.01
-8.97
-11.14
-13.66
-16.60
-19.99
-23.85
-28.08
-32.45
-36.54
-39.73
-41.34
-40.78
-37.74
-32.32
-25.08
-16.84
-8.51
-0.82
5.80
11.19
15.30
18.10
19.53
19.67
18.76
17.27
15.79
14.79
14.45
14.69
15.25
15.81
16.13
16.08
15.60
14.74
13.59
12.32
11.04
9.81
8.56
7.16
5.50
3.58
1.48
-0.69
-2.88
-5.12
-7.47
-10.00
-12.77
-15.82
-19.25
-23.14
-27.44
-31.81
-35.62
-38.03
-38.27
-35.89
-30.98
-24.13
-16.24
-8.22
-0.83
5.52
10.71
14.79
17.81
19.78
20.66
20.46
19.38
17.78
16.09
14.73
13.94
13.76
14.04
14.56
15.08
15.38
15.35
14.91
14.07
12.82
11.17
9.16
6.80
4.22
1.59
-0.88
-3.05
-4.87
-6.46
-8.11
-10.12
-12.74
-16.13
-20.28
-24.99
-29.85
-34.27
-37.55
-39.02
-38.24
-35.12
-29.92
-23.18
-15.61
-7.90
-0.62
5.75
10.92
14.72
17.16
18.35
18.55
18.03
17.11
16.06
15.09
14.36
13.91
13.69
13.64
13.64
13.59
13.41
13.00
12.26
11.12
9.60
7.78
5.82
3.85
1.94
0.09
-1.76
-3.69
-5.79
-8.16
-10.92
-14.19
-17.97
-22.08
-26.01
-29.08
-30.56
-29.90
-26.92
-21.84
-15.22
-7.78
-0.32
6.50
12.16
16.35
18.97
20.14
20.13
19.36
18.25
17.14
16.26
15.62
15.13
14.64
14.02
13.22
12.30
11.34
10.41
9.49
8.51
7.35
5.92
4.17
2.15
-0.05
-2.33
-4.62
-6.97
-9.52
-12.50
-16.05
-20.21
-24.75
-29.22
-32.97
-35.33
-35.71
-33.73
-29.40
-23.04
-15.33
-7.12
0.78
7.68
13.19
17.13
19.53
20.57
20.51
19.70
18.51
17.31
16.37
15.77
15.53
15.51
15.58
15.57
15.35
14.80
13.88
12.62
11.16
9.60
7.96
6.20
4.21
1.93
-0.60
-3.26
-5.92
-8.61
-11.48
-14.78
-18.76
-23.45
-28.58
-33.59
-37.62
-39.78
-39.37
-36.13
-30.31
-22.69
-14.26
-5.99
1.44
7.73
12.81
16.74
19.59
21.38
22.21
22.25
21.74
20.97
20.14
19.35
18.59
17.83
17.08
16.42
16.00
15.87
15.97
16.04
15.71
14.71
12.89
10.35
7.34
4.17
1.11
-1.74
-4.41
-7.01
-9.74
-12.77
-16.28
-20.35
-24.88
-29.55
-33.79
-36.82
-37.89
-36.54
-32.72
-26.89
-19.84
-12.42
-5.32
1.07
6.62
11.25
14.83
17.17
18.14
17.79
16.42
14.48
12.43
10.63
9.22
8.21
7.58
7.25
7.22
7.48
8.02
8.80
9.65
10.31
10.56
10.23
9.37
8.23
7.15
6.38
5.91
5.51
4.76
3.31
0.97
-2.29
-6.38
-11.15
-16.37
-21.60
-26.13
-29.08
-29.56
-27.11
-21.86
-14.59
-6.49
1.23
7.76
12.79
16.44
18.99
20.64
21.43
21.35
20.49
19.15
17.79
16.82
16.45
16.58
16.89
17.02
16.74
16.06
15.08
13.98
12.85
11.68
10.39
8.86
7.05
4.94
2.66
0.35
-1.84
-3.78
-5.52
-7.24
-9.24
-11.87
-15.39
-19.77
-24.65
-29.30
-32.74
-34.05
-32.58
-28.28
-21.66
-13.66
-5.38
2.23
8.52
13.24
16.33
17.90
18.17
17.39
15.98
14.42
13.11
12.31
12.06
12.16
12.39
12.52
12.45
12.19
11.76
11.17
10.36
9.25
7.79
6.02
4.06
2.04
0.02
-2.10
-4.50
-7.41
-10.96
-15.15
-19.75
-24.38
-28.52
-31.58
-32.97
-32.23
-29.14
-23.89
-17.02
-9.36
-1.74
5.12
10.81
15.19
18.28
20.14
20.90
20.69
19.76
18.34
16.68
15.00
13.45
12.12
11.14
10.54
10.28
10.21
10.08
9.63
8.71
7.29
5.45
3.36
1.20
-0.91
-2.92
-4.88
-6.91
-9.20
-12.02
-15.58
-19.97
-24.98
-30.09
-34.42
-37.04
-37.15
-34.36
-28.87
-21.36
-12.81
-4.18
3.75
10.50
15.79
19.51
21.64
22.28
21.73
20.44
18.94
17.69
16.93
16.65
16.66
16.66
16.41
15.82
14.95
13.96
12.99
12.10
11.21
10.14
8.76
6.97
4.83
2.42
-0.13
-2.77
-5.47
-8.30
-11.35
-14.76
-18.60
-22.84
-27.21
-31.18
-34.05
-35.10
-33.86
-30.26
-24.63
-17.59
-9.88
-2.20
4.84
10.82
15.47
18.66
20.48
21.14
20.93
20.15
19.10
18.02
17.13
16.58
16.45
16.66
17.05
17.39
17.46
17.12
16.34
15.16
13.74
12.22
10.73
9.33
7.99
6.59
5.03
3.20
1.06
-1.39
-4.13
-7.17
-10.43
-13.80
-17.19
-20.51
-23.83
-27.30
-30.95
-34.58
-37.59
-39.20
-38.72
-35.84
-30.74
-23.98
-16.33
-8.45
-0.89
5.94
11.69
16.08
18.98
20.46
20.71
20.02
18.70
17.07
15.46
14.24
13.66
13.82
14.53
15.42
16.04
16.13
15.60
14.57
13.20
11.67
10.07
8.45
6.82
5.14
3.36
1.41
-0.72
-2.99
-5.32
-7.67
-10.08
-12.67
-15.62
-19.00
-22.76
-26.65
-30.25
-33.04
-34.46
-34.05
-31.61
-27.22
-21.24
-14.25
-6.91
0.20
6.57
11.82
15.67
17.98
18.77
18.28
16.87
14.99
13.04
11.38
10.20
9.59
9.54
9.92
10.52
11.13
11.54
11.62
11.22
10.24
8.63
6.45
3.87
1.18
-1.31
-3.43
-5.14
-6.59
-8.08
-9.98
-12.64
-16.25
-20.74
-25.60
-29.99
-32.84
-33.29
-30.88
-25.81
-18.79
-10.79
-2.77
4.48
10.43
14.82
17.59
18.86
18.96
18.29
17.26
16.19
15.27
14.59
14.17
13.88
13.56
13.01
12.11
10.91
9.60
8.41
7.43
6.56
5.53
4.08
2.14
-0.24
-2.86
-5.56
-8.25
-10.96
-13.73
-16.68
-19.90
-23.50
-27.46
-31.55
-35.25
-37.85
-38.62
-37.01
-32.85
-26.42
-18.35
-9.49
-0.73
7.12
13.51
18.14
20.98
22.15
21.91
20.58
18.63
16.57
14.95
14.12
14.15
14.76
15.48
15.85
15.61
14.72
13.34
11.67
9.86
7.99
6.12
4.24
2.36
0.48
-1.40
-3.28
-5.22
-7.40
-10.10
-13.63
-18.11
-23.41
-29.03
-34.19
-38.02
-39.76
-38.95
-35.49
-29.67
-22.16
-13.80
-5.47
2.14
8.61
13.83
17.82
20.61
22.22
22.67
22.14
21.01
19.75
18.71
18.09
17.84
17.76
17.70
17.57
17.34
17.01
16.59
16.06
15.42
14.59
13.40
11.66
9.24
6.17
2.73
-0.67
-3.67
-6.11
-8.13
-10.07
-12.35
-15.32
-19.17
-23.83
-28.99
-34.01
-38.04
-40.17
-39.68
-36.29
-30.32
-22.50
-13.76
-5.03
3.01
9.92
15.45
19.42
21.80
22.67
22.30
21.14
19.72
18.53
17.86
17.77
18.07
18.41
18.46
18.05
17.23
16.21
15.24
14.50
13.94
13.30
12.27
10.60
8.22
5.31
2.21
-0.75
-3.34
-5.54
-7.49
-9.40
-11.54
-14.11
-17.31
-21.25
-25.88
-30.84
-35.41
-38.66
-39.63
-37.74
-32.92
-25.72
-17.10
-8.13
0.26
7.38
12.84
16.49
18.43
18.93
18.42
17.42
16.42
15.79
15.67
16.00
16.55
16.97
17.00
16.49
15.50
14.23
12.95
11.81
10.85
9.92
8.85
7.50
5.86
3.96
1.89
-0.31
-2.61
-4.98
-7.40
-9.92
-12.64
-15.70
-19.18
-22.93
-26.57
-29.45
-30.89
-30.31
-27.46
-22.45
-15.74
-8.06
-0.19
7.06
13.06
17.41
19.99
20.95
20.64
19.49
17.94
16.38
15.07
14.14
13.60
13.31
13.11
12.82
12.38
11.78
11.04
10.16
9.10
7.76
6.10
4.18
2.13
0.10
-1.86
-3.81
-5.93
-8.45
-11.50
-15.13
-19.24
-23.60
-27.76
-31.15
-33.10
-33.04
-30.62
-25.87
-19.23
-11.45
-3.41
4.07
10.39
15.20
18.42
20.17
20.70
20.35
19.44
18.31
17.22
16.31
15.61
15.05
14.55
14.00
13.37
12.65
11.86
11.03
10.14
9.12
7.88
6.30
4.32
1.94
-0.77
-3.64
-6.49
-9.22
-11.87
-14.63
-17.76
-21.43
-25.60
-29.98
-34.04
-37.07
-38.36
-37.39
-33.94
-28.18
-20.66
-12.19
-3.62
4.28
10.97
16.13
19.66
21.64
22.28
21.96
21.11
20.16
19.43
19.02
18.81
18.60
18.17
17.43
16.42
15.30
14.23
13.32
12.56
11.80
10.85
9.52
7.74
5.52
2.98
0.28
-2.47
-5.18
-7.84
-10.49
-13.26
-16.35
-19.97
-24.17
-28.73
-33.07
-36.32
-37.61
-36.36
-32.49
-26.42
-18.92
-10.86
-2.93
4.36
10.66
15.73
19.35
21.43
22.05
21.49
20.24
18.82
17.63
16.89
16.56
16.46
16.32
15.98
15.41
14.71
14.03
13.43
12.85
12.09
10.92
9.18
6.88
4.19
1.35
-1.41
-3.96
-6.30
-8.53
-10.91
-13.66
-17.03
-21.08
-25.65
-30.30
-34.39
-37.15
-37.88
-36.13
-31.82
-25.34
-17.43
-9.03
-1.04
5.86
11.38
15.48
18.28
19.93
20.53
20.18
19.09
17.58
16.06
14.82
13.99
13.51
13.22
13.01
12.83
12.72
12.63
12.44
11.95
10.96
9.38
7.28
4.81
2.19
-0.41
-2.84
-5.07
-7.19
-9.40
-12.02
-15.30
-19.32
-23.78
-27.98
-30.98
-31.90
-30.20
-25.85
-19.37
-11.59
-3.47
4.17
10.69
15.69
19.00
20.65
20.84
19.95
18.42
16.72
15.21
14.10
13.42
13.10
12.95
12.79
12.43
11.79
10.84
9.65
8.29
6.80
5.15
3.31
1.26
-0.93
-3.19
-5.42
-7.64
-9.95
-12.55
-15.62
-19.25
-23.35
-27.57
-31.36
-33.97
-34.69
-33.01
-28.83
-22.51
-14.78
-6.55
1.31
8.16
13.61
17.49
19.81
20.69
20.42
19.37
17.93
16.45
15.18
14.21
13.53
13.09
12.77
12.49
12.14
11.66
11.00
10.12
8.97
7.48
5.56
3.18
0.38
-2.65
-5.67
-8.44
-10.88
-13.14
-15.61
-18.71
-22.71
-27.48
-32.39
-36.41
-38.44
-37.64
-33.71
-27.06
-18.63
-9.52
-0.76
6.96
13.29
18.06
21.23
22.84
23.14
22.56
21.68
20.95
20.59
20.45
20.19
19.52
18.35
16.85
15.34
14.11
13.21
12.53
11.80
10.77
9.26
7.25
4.83
2.17
-0.54
-3.21
-5.81
-8.45
-11.26
-14.34
-17.77
-21.55
-25.55
-29.53
-33.03
-35.40
-35.95
-34.16
-29.89
-23.43
-15.46
-6.85
1.54
9.01
15.11
19.58
22.36
23.57
23.49
22.49
21.03
19.52
18.27
17.44
17.03
16.89
16.79
16.56
16.10
15.38
14.45
13.32
12.00
10.45
8.71
6.78
4.71
2.53
0.24
-2.14
-4.59
-7.03
-9.46
-12.01
-14.92
-18.49
-22.85
-27.79
-32.66
-36.57
-38.54
-37.88
-34.40
-28.39
-20.61
-12.02
-3.57
3.98
10.09
14.53
17.32
18.67
18.91
18.46
17.71
16.98
16.44
16.09
15.83
15.51
15.03
14.37
13.59
12.80
12.04
11.32
10.56
9.66
8.49
6.95
5.03
2.78
0.38
-1.95
-4.01
-5.78
-7.46
-9.45
-12.24
-16.07
-20.80
-25.77
-30.00
-32.41
-32.19
-29.07
-23.37
-15.86
-7.54
0.61
7.84
13.61
17.63
19.79
20.24
19.32
17.56
15.61
14.02
13.11
12.87
13.06
13.28
13.25
12.82
12.01
10.95
9.74
8.43
7.03
5.49
3.77
1.87
-0.16
-2.25
-4.30
-6.32
-8.39
-10.74
-13.64
-17.26
-21.54
-26.13
-30.39
-33.53
-34.82
-33.79
-30.33
-24.69
-17.42
-9.27
-1.03
6.53
12.81
17.43
20.33
21.66
21.78
21.12
20.06
18.88
17.75
16.75
15.88
15.13
14.48
13.88
13.33
12.81
12.32
11.80
11.11
10.06
8.42
6.08
3.13
-0.13
-3.32
-6.15
-8.51
-10.57
-12.65
-15.14
-18.30
-22.26
-26.91
-31.91
-36.65
-40.30
-41.95
-40.92
-36.91
-30.20
-21.57
-12.02
-2.58
5.95
13.08
18.56
22.35
24.57
25.47
25.40
24.71
23.75
22.75
21.86
21.12
20.47
19.84
19.09
18.18
17.12
16.04
15.04
14.13
13.19
11.97
10.22
7.80
4.77
1.33
-2.19
-5.50
-8.41
-10.83
-12.86
-14.75
-16.92
-19.81
-23.71
-28.52
-33.71
-38.34
-41.35
-41.85
-39.39
-34.02
-26.24
-16.91
-7.01
2.45
10.64
16.97
21.19
23.39
23.91
23.27
21.98
20.55
19.36
18.67
18.54
18.83
19.24
19.44
19.18
18.39
17.22
15.91
14.67
13.60
12.65
11.60
10.22
8.32
5.85
2.94
-0.16
-3.19
-6.00
-8.61
-11.16
-13.89
-17.01
-20.66
-24.87
-29.42
-33.83
-37.39
-39.23
-38.58
-35.06
-28.82
-20.58
-11.38
-2.34
5.70
12.23
17.08
20.32
22.06
22.46
21.76
20.33
18.63
17.19
16.37
16.30
16.80
17.49
17.93
17.84
17.15
15.99
14.60
13.22
11.97
10.83
9.67
8.30
6.59
4.46
2.00
-0.63
-3.24
-5.69
-8.00
-10.32
-12.86
-15.88
-19.53
-23.79
-28.40
-32.85
-36.44
-38.41
-38.15
-35.37
-30.15
-22.99
-14.61
-5.86
2.42
9.54
14.98
18.48
20.10
20.14
19.15
17.75
16.42
15.45
14.88
14.57
14.32
14.01
13.59
13.12
12.65
12.20
11.68
10.98
9.95
8.52
6.69
4.58
2.42
0.42
-1.31
-2.82
-4.37
-6.31
-8.95
-12.46
-16.77
-21.55
-26.26
-30.23
-32.68
-32.95
-30.65
-25.74
-18.68
-10.28
-1.57
6.51
13.20
18.09
21.05
22.23
22.04
21.01
19.72
18.57
17.70
17.00
16.22
15.20
13.94
12.60
11.41
10.47
9.77
9.13
8.32
7.16
5.55
3.50
1.12
-1.44
-4.01
-6.47
-8.84
-11.20
-13.74
-16.66
-20.14
-24.24
-28.80
-33.39
-37.26
-39.51
-39.28
-36.09
-30.05
-21.85
-12.59
-3.43
4.73
11.37
16.30
19.53
21.17
21.40
20.57
19.15
17.71
16.64
16.13
16.04
16.03
15.77
15.13
14.17
13.13
12.19
11.38
10.54
9.45
7.89
5.80
3.31
0.61
-2.10
-4.68
-7.12
-9.55
-12.15
-15.15
-18.75
-23.02
-27.81
-32.63
-36.70
-39.09
-38.97
-35.88
-29.93
-21.79
-12.48
-3.12
5.38
12.41
17.74
21.37
23.45
24.21
23.92
22.90
21.48
20.00
18.66
17.58
16.73
16.04
15.41
14.78
14.16
13.55
12.95
12.29
11.43
10.19
8.40
5.98
3.00
-0.31
-3.63
-6.64
-9.16
-11.27
-13.25
-15.58
-18.67
-22.74
-27.57
-32.58
-36.87
-39.44
-39.51
-36.71
-31.13
-23.35
-14.25
-4.83
3.98
11.39
16.93
20.39
21.93
21.92
20.93
19.53
18.20
17.21
16.63
16.39
16.27
16.07
15.65
14.92
13.93
12.77
11.57
10.41
9.33
8.22
6.94
5.33
3.29
0.79
-2.06
-5.10
-8.18
-11.25
-14.38
-17.73
-21.42
-25.43
-29.50
-33.09
-35.48
-35.95
-33.95
-29.37
-22.54
-14.22
-5.39
2.95
10.02
15.36
18.86
20.63
20.92
20.07
18.47
16.52
14.65
13.19
12.32
12.00
12.05
12.21
12.31
12.26
12.09
11.82
11.38
10.65
9.47
7.73
5.48
2.84
0.02
-2.79
-5.48
-8.05
-10.59
-13.31
-16.45
-20.17
-24.43
-28.86
-32.81
-35.43
-35.94
-33.83
-29.06
-22.05
-13.58
-4.61
3.96
11.38
17.16
21.04
23.01
23.29
22.22
20.29
18.01
15.82
14.05
12.88
12.30
12.13
12.16
12.15
11.92
11.38
10.51
9.31
7.80
6.03
4.10
2.15
0.29
-1.45
-3.19
-5.21
-7.82
-11.21
-15.39
-20.09
-24.81
-28.89
-31.63
-32.43
-30.85
-26.79
-20.55
-12.76
-4.31
3.89
11.12
16.92
21.06
23.49
24.31
23.70
21.95
19.49
16.79
14.33
12.44
11.30
10.91
11.12
11.62
12.06
12.05
11.32
9.76
7.50
4.77
1.83
-1.10
-3.92
-6.56
-9.06
-11.51
-14.12
-17.21
-21.03
-25.64
-30.68
-35.36
-38.61
-39.44
-37.24
-32.01
-24.38
-15.34
-6.01
2.68
10.07
15.83
19.84
22.16
22.98
22.62
21.52
20.12
18.82
17.80
17.10
16.58
16.10
15.54
14.85
14.07
13.22
12.27
11.15
9.74
7.91
5.61
2.86
-0.20
-3.37
-6.45
-9.33
-12.06
-14.90
-18.18
-22.17
-26.86
-31.87
-36.39
-39.44
-40.08
-37.72
-32.34
-24.49
-15.11
-5.32
3.93
11.92
18.26
22.80
25.55
26.68
26.49
25.44
24.06
22.85
22.14
21.97
22.13
22.27
22.08
21.43
20.38
19.12
17.87
16.75
15.74
14.72
13.47
11.80
9.57
6.76
3.53
0.11
-3.18
-6.15
-8.77
-11.25
-13.98
-17.34
-21.59
-26.70
-32.33
-37.81
-42.34
-45.05
-45.28
-42.65
-37.26
-29.60
-20.49
-10.87
-1.58
6.70
13.62
19.05
23.07
25.81
27.40
28.00
27.75
26.85
25.59
24.28
23.18
22.43
22.04
21.88
21.82
21.69
21.38
20.81
19.89
18.60
16.96
15.02
12.87
10.55
8.04
5.36
2.50
-0.46
-3.40
-6.25
-8.97
-11.59
-14.17
-16.81
-19.64
-22.89
-26.75
-31.27
-36.20
-40.90
-44.44
-45.88
-44.54
-40.22
-33.33
-24.67
-15.24
-5.95
2.51
9.69
15.35
19.39
21.80
22.70
22.40
21.34
20.02
18.90
18.26
18.13
18.34
18.64
18.80
18.72
18.40
17.92
17.33
16.66
15.84
14.75
13.28
11.37
9.03
6.40
3.70
1.14
-1.13
-3.13
-5.03
-7.10
-9.68
-12.98
-17.01
-21.49
-25.83
-29.28
-31.07
-30.65
-27.84
-22.85
-16.23
-8.73
-1.10
6.00
12.07
16.78
19.97
21.63
21.90
21.07
19.52
17.68
15.92
14.53
13.63
13.17
13.02
12.98
12.84
12.43
11.70
10.67
9.38
7.95
6.38
4.66
2.72
0.49
-2.02
-4.71
-7.38
-9.85
-12.06
-14.17
-16.56
-19.68
-23.82
-28.90
-34.34
-39.17
-42.31
-42.86
-40.36
-34.92
-27.12
-17.85
-8.13
1.13
9.16
15.50
19.92
22.47
23.40
23.07
21.88
20.27
18.61
17.24
16.37
16.07
16.18
16.44
16.54
16.26
15.57
14.58
13.50
12.46
11.45
10.28
8.73
6.59
3.82
0.57
-2.87
-6.18
-9.17
-11.87
-14.52
-17.47
-21.04
-25.37
-30.32
-35.39
-39.80
-42.64
-43.05
-40.54
-35.10
-27.29
-18.07
-8.52
0.44
8.21
14.49
19.22
22.42
24.15
24.56
23.91
22.65
21.27
20.20
19.64
19.57
19.73
19.85
19.68
19.15
18.31
17.28
16.20
15.10
13.92
12.51
10.67
8.29
5.40
2.21
-0.96
-3.78
-6.09
-7.99
-9.82
-12.03
-15.01
-18.98
-23.89
-29.41
-34.96
-39.72
-42.78
-43.24
-40.57
-34.74
-26.36
-16.50
-6.40
2.92
10.78
16.93
21.38
24.21
25.55
25.62
24.78
23.53
22.34
21.59
21.36
21.53
21.83
21.96
21.76
21.16
20.20
18.97
17.59
16.14
14.67
13.16
11.53
9.64
7.36
4.61
1.43
-1.98
-5.39
-8.58
-11.41
-13.91
-16.24
-18.62
-21.33
-24.63
-28.67
-33.40
-38.43
-43.00
-46.04
-46.45
-43.51
-37.17
-28.12
-17.62
-7.03
2.54
10.36
16.16
19.92
21.79
22.05
21.11
19.57
18.07
17.11
16.92
17.39
18.14
18.71
18.77
18.19
17.10
15.76
14.47
13.43
12.65
11.99
11.14
9.81
7.88
5.36
2.49
-0.42
-3.14
-5.56
-7.79
-10.08
-12.72
-15.98
-19.95
-24.53
-29.33
-33.68
-36.73
-37.68
-35.95
-31.43
-24.50
-15.96
-6.76
2.16
10.04
16.36
20.82
23.35
24.08
23.32
21.58
19.40
17.29
15.59
14.42
13.73
13.34
13.06
12.77
12.40
11.91
11.28
10.42
9.25
7.72
5.81
3.57
1.08
-1.53
-4.19
-6.82
-9.41
-12.02
-14.83
-18.10
-22.08
-26.80
-31.95
-36.79
-40.30
-41.48
-39.66
-34.74
-27.21
-17.96
-8.05
1.53
9.99
16.81
21.65
24.43
25.28
24.63
23.03
21.08
19.24
17.70
16.44
15.33
14.27
13.27
12.39
11.66
11.05
10.44
9.67
8.59
7.07
5.03
2.46
-0.55
-3.79
-6.98
-9.85
-12.29
-14.43
-16.62
-19.29
-22.84
-27.38
-32.65
-37.93
-42.21
-44.33
-43.39
-38.99
-31.45
-21.72
-11.06
-0.74
8.28
15.45
20.59
23.72
25.04
24.87
23.66
21.96
20.28
18.96
18.16
17.76
17.56
17.29
16.77
15.96
14.92
13.80
12.74
11.76
10.76
9.49
7.73
5.38
2.55
-0.48
-3.46
-6.23
-8.87
-11.64
-14.87
-18.80
-23.48
-28.63
-33.69
-37.83
-40.11
-39.78
-36.42
-30.19
-21.79
-12.25
-2.67
6.05
13.35
18.99
22.94
25.25
26.06
25.58
24.18
22.31
20.46
19.03
18.20
17.88
17.82
17.71
17.32
16.60
15.69
14.76
13.93
13.11
12.02
10.35
7.92
4.80
1.29
-2.20
-5.39
-8.19
-10.77
-13.42
-16.43
-20.01
-24.23
-29.02
-34.02
-38.62
-41.95
-43.10
-41.36
-36.52
-28.96
-19.56
-9.42
0.39
9.07
16.11
21.26
24.43
25.69
25.33
23.84
21.84
19.97
18.64
17.94
17.65
17.42
16.94
16.16
15.21
14.36
13.77
13.46
13.19
12.63
11.42
9.33
6.37
2.78
-1.08
-4.70
-7.76
-10.13
-11.94
-13.58
-15.52
-18.19
-21.88
-26.59
-31.98
-37.32
-41.59
-43.67
-42.69
-38.32
-30.87
-21.23
-10.61
-0.22
8.91
16.10
21.03
23.71
24.45
23.80
22.40
20.80
19.37
18.29
17.54
17.05
16.65
16.15
15.42
14.42
13.24
12.07
11.08
10.27
9.45
8.30
6.56
4.16
1.21
-2.07
-5.51
-8.98
-12.52
-16.16
-19.99
-24.06
-28.28
-32.39
-35.77
-37.59
-36.99
-33.43
-26.90
-18.09
-8.10
1.86
10.77
18.01
23.32
26.67
28.17
28.09
26.76
24.68
22.38
20.33
18.80
17.79
17.13
16.60
15.99
15.20
14.24
13.11
11.77
10.15
8.17
5.77
2.99
-0.08
-3.38
-6.81
-10.34
-13.96
-17.71
-21.70
-26.08
-30.94
-36.21
-41.43
-45.78
-48.17
-47.59
-43.51
-36.10
-26.20
-15.10
-4.07
5.89
14.21
20.70
25.35
28.28
29.65
29.74
28.92
27.60
26.15
24.78
23.57
22.49
21.47
20.47
19.51
18.59
17.70
16.76
15.63
14.12
12.12
9.59
6.56
3.14
-0.56
-4.44
-8.38
-12.33
-16.25
-20.25
-24.50
-29.18
-34.22
-39.16
-43.12
-45.03
-43.98
-39.58
-32.08
-22.31
-11.39
-0.42
9.67
18.23
24.89
29.49
32.09
32.86
32.11
30.26
27.78
25.19
22.93
21.28
20.26
19.64
19.08
18.27
17.12
15.64
13.94
12.02
9.86
7.38
4.64
1.75
-1.11
-3.86
-6.55
-9.35
-12.46
-16.14
-20.56
-25.74
-31.50
-37.32
-42.31
-45.40
-45.60
-42.39
-35.87
-26.78
-16.26
-5.52
4.43
12.91
19.53
24.14
26.76
27.58
26.96
25.41
23.49
21.67
20.25
19.32
18.78
18.46
18.18
17.79
17.20
16.39
15.33
14.00
12.37
10.43
8.16
5.59
2.79
-0.13
-3.07
-6.01
-9.07
-12.50
-16.59
-21.44
-26.84
-32.13
-36.34
-38.41
-37.53
-33.43
-26.42
-17.34
-7.27
2.67
11.57
18.76
23.86
26.78
27.69
26.99
25.22
22.97
20.73
18.82
17.38
16.41
15.77
15.34
14.92
14.34
13.43
12.07
10.19
7.86
5.20
2.36
-0.53
-3.44
-6.32
-9.22
-12.21
-15.44
-19.12
-23.46
-28.52
-34.01
-39.18
-42.96
-44.20
-42.12
-36.58
-28.15
-17.87
-6.98
3.39
12.39
19.48
24.38
27.06
27.74
26.91
25.14
23.07
21.13
19.52
18.24
17.20
16.28
15.41
14.57
13.72
12.78
11.60
10.04
7.99
5.46
2.53
-0.62
-3.80
-6.89
-9.89
-12.95
-16.35
-20.36
-25.17
-30.69
-36.45
-41.62
-45.16
-46.02
-43.54
-37.62
-28.83
-18.22
-7.07
3.43
12.45
19.53
24.60
27.78
29.35
29.60
28.88
27.52
25.82
24.04
22.39
21.00
19.99
19.35
18.98
18.67
18.14
17.13
15.48
13.17
10.31
7.10
3.74
0.42
-2.75
-5.70
-8.50
-11.32
-14.51
-18.41
-23.28
-29.01
-35.00
-40.21
-43.41
-43.53
-40.06
-33.21
-23.87
-13.26
-2.63
7.07
15.25
21.64
26.09
28.61
29.32
28.58
26.97
25.17
23.73
22.88
22.48
22.19
21.65
20.69
19.37
17.92
16.54
15.34
14.23
13.02
11.45
9.33
6.59
3.29
-0.37
-4.13
-7.77
-11.20
-14.49
-17.88
-21.58
-25.78
-30.47
-35.41
-40.11
-43.85
-45.79
-45.16
-41.51
-34.88
-25.84
-15.41
-4.72
5.19
13.59
20.05
24.43
26.79
27.38
26.55
24.82
22.72
20.73
19.16
18.12
17.57
17.33
17.20
16.99
16.54
15.76
14.60
13.05
11.11
8.84
6.30
3.58
0.78
-1.99
-4.69
-7.33
-10.07
-13.16
-16.90
-21.43
-26.59
-31.77
-36.02
-38.21
-37.44
-33.33
-26.20
-16.92
-6.72
3.20
11.91
18.85
23.80
26.78
28.01
27.80
26.57
24.74
22.73
20.83
19.20
17.87
16.78
15.84
14.91
13.89
12.66
11.13
9.26
7.06
4.61
2.01
-0.62
-3.24
-5.86
-8.54
-11.37
-14.46
-17.96
-22.02
-26.74
-32.03
-37.47
-42.30
-45.50
-46.06
-43.31
-37.17
-28.23
-17.58
-6.51
3.82
12.64
19.51
24.29
27.04
27.93
27.31
25.70
23.72
21.94
20.68
19.97
19.62
19.35
18.94
18.29
17.40
16.29
14.87
13.07
10.82
8.16
5.20
2.09
-1.01
-4.04
-6.98
-9.92
-12.99
-16.42
-20.45
-25.25
-30.83
-36.84
-42.58
-47.00
-48.96
-47.56
-42.43
-33.96
-23.13
-11.29
0.21
10.33
18.45
24.35
28.08
29.87
30.10
29.26
27.87
26.44
25.27
24.43
23.79
23.14
22.25
21.05
19.63
18.12
16.69
15.37
14.08
12.59
10.64
8.03
4.79
1.11
-2.69
-6.31
-9.61
-12.67
-15.72
-19.07
-23.01
-27.71
-33.10
-38.76
-43.95
-47.65
-48.85
-46.81
-41.34
-32.89
-22.41
-11.08
-0.05
9.76
17.73
23.51
27.05
28.51
28.25
26.80
24.78
22.75
21.21
20.37
20.22
20.46
20.67
20.46
19.67
18.36
16.75
15.11
13.52
11.87
9.93
7.51
4.56
1.25
-2.19
-5.50
-8.54
-11.33
-14.06
-17.04
-20.64
-25.16
-30.57
-36.45
-41.95
-45.94
-47.38
-45.54
-40.32
-32.26
-22.34
-11.73
-1.45
7.73
15.39
21.32
25.46
27.82
28.49
27.68
25.77
23.23
20.57
18.21
16.42
15.26
14.68
14.48
14.42
14.26
13.75
12.73
11.10
8.87
6.15
3.11
-0.06
-3.18
-6.11
-8.81
-11.36
-14.02
-17.13
-21.00
-25.67
-30.76
-35.41
-38.43
-38.71
-35.61
-29.16
-20.14
-9.78
0.58
9.88
17.40
22.83
26.15
27.49
27.12
25.44
22.97
20.27
17.83
15.96
14.75
14.05
13.61
13.12
12.34
11.12
9.43
7.34
4.96
2.45
-0.04
-2.46
-4.81
-7.19
-9.76
-12.69
-16.21
-20.47
-25.56
-31.36
-37.42
-42.90
-46.72
-47.78
-45.35
-39.28
-30.18
-19.19
-7.69
3.04
12.13
19.16
24.07
27.05
28.43
28.52
27.66
26.13
24.22
22.15
20.13
18.27
16.65
15.25
13.97
12.68
11.23
9.52
7.51
5.24
2.79
0.26
-2.33
-5.03
-7.95
-11.22
-14.98
-19.28
-24.16
-29.55
-35.20
-40.62
-45.02
-47.43
-46.90
-42.87
-35.37
-25.13
-13.37
-1.42
9.54
18.71
25.71
30.40
32.89
33.41
32.38
30.33
27.84
25.44
23.43
21.90
20.74
19.77
18.80
17.73
16.46
14.91
13.01
10.73
8.10
5.21
2.20
-0.76
-3.60
-6.35
-9.17
-12.34
-16.18
-20.93
-26.63
-32.94
-39.10
-44.04
-46.53
-45.56
-40.68
-32.18
-21.08
-8.83
3.07
13.45
21.64
27.46
31.06
32.73
32.77
31.59
29.63
27.42
25.41
23.87
22.78
21.96
21.13
20.08
18.79
17.29
15.66
13.90
11.96
9.78
7.31
4.58
1.61
-1.56
-4.91
-8.45
-12.21
-16.27
-20.75
-25.73
-31.23
-36.97
-42.38
-46.55
-48.49
-47.36
-42.81
-35.10
-25.05
-13.82
-2.61
7.63
16.29
23.07
27.88
30.73
31.73
31.16
29.40
27.01
24.49
22.22
20.39
19.05
18.14
17.59
17.26
16.97
16.45
15.41
13.65
11.14
8.04
4.66
1.28
-1.85
-4.64
-7.11
-9.45
-11.94
-15.01
-19.03
-24.19
-30.29
-36.63
-42.07
-45.31
-45.17
-41.03
-33.07
-22.25
-10.03
1.99
12.48
20.66
26.24
29.37
30.45
29.97
28.48
26.52
24.55
22.84
21.47
20.31
19.17
17.94
16.57
15.13
13.65
12.12
10.51
8.79
6.95
4.99
2.86
0.45
-2.37
-5.67
-9.44
-13.60
-18.12
-22.98
-28.18
-33.52
-38.48
-42.26
-43.84
-42.39
-37.52
-29.47
-19.11
-7.61
3.77
13.96
22.28
28.38
32.16
33.73
33.36
31.45
28.56
25.35
22.38
20.02
18.36
17.27
16.49
15.79
15.00
14.02
12.77
11.19
9.19
6.75
3.89
0.73
-2.64
-6.10
-9.55
-12.95
-16.34
-19.94
-24.07
-29.09
-35.07
-41.64
-47.87
-52.43
-54.02
-51.73
-45.37
-35.48
-23.19
-9.92
2.95
14.25
23.22
29.50
33.11
34.40
33.95
32.45
30.58
28.90
27.74
27.14
26.90
26.65
26.06
24.93
23.27
21.24
18.99
16.62
14.17
11.61
8.91
6.02
2.94
-0.36
-3.85
-7.50
-11.29
-15.26
-19.60
-24.56
-30.28
-36.58
-42.87
-48.09
-51.06
-50.73
-46.60
-38.81
-28.17
-15.94
-3.51
7.88
17.42
24.72
29.80
32.88
34.25
34.20
33.05
31.16
28.95
26.82
25.08
23.78
22.85
22.08
21.26
20.25
19.01
17.50
15.70
13.55
10.98
7.97
4.53
0.83
-2.88
-6.28
-9.17
-11.57
-13.83
-16.52
-20.27
-25.47
-32.06
-39.41
-46.41
-51.74
-54.16
-52.84
-47.58
-38.84
-27.59
-15.13
-2.75
8.45
17.72
24.62
29.05
31.12
31.25
30.01
28.09
26.08
24.35
23.02
21.96
21.00
19.96
18.80
17.55
16.27
14.97
13.63
12.13
10.32
8.11
5.41
2.26
-1.20
-4.77
-8.23
-11.52
-14.67
-17.85
-21.31
-25.30
-29.97
-35.25
-40.67
-45.40
-48.28
-48.17
-44.37
-36.91
-26.62
-14.85
-3.08
7.47
16.10
22.52
26.77
29.01
29.50
28.56
26.61
24.12
21.50
19.13
17.21
15.82
14.89
14.22
13.56
12.67
11.43
9.82
7.91
5.77
3.42
0.88
-1.82
-4.58
-7.34
-10.08
-12.95
-16.22
-20.19
-24.97
-30.30
-35.48
-39.43
-40.99
-39.30
-34.03
-25.65
-15.20
-4.09
6.33
15.07
21.65
25.98
28.27
28.83
28.01
26.19
23.80
21.25
18.89
16.93
15.37
14.06
12.78
11.31
9.59
7.61
5.51
3.39
1.31
-0.77
-2.95
-5.37
-8.10
-11.21
-14.76
-18.85
-23.60
-29.09
-35.14
-41.19
-46.25
-49.14
-48.79
-44.67
-36.99
-26.69
-15.10
-3.58
6.81
15.44
22.05
26.63
29.24
29.96
29.00
26.74
23.73
20.62
17.98
16.09
14.96
14.29
13.67
12.73
11.25
9.18
6.59
3.65
0.56
-2.51
-5.47
-8.32
-11.18
-14.28
-17.85
-22.08
-27.04
-32.63
-38.41
-43.65
-47.31
-48.27
-45.71
-39.42
-29.93
-18.40
-6.23
5.33
15.37
23.37
29.12
32.56
33.83
33.22
31.23
28.47
25.54
22.88
20.76
19.26
18.30
17.66
17.01
15.98
14.27
11.81
8.78
5.50
2.31
-0.67
-3.48
-6.34
-9.53
-13.27
-17.70
-22.87
-28.66
-34.64
-40.08
-43.92
-45.05
-42.62
-36.40
-26.88
-15.22
-2.96
8.39
17.71
24.44
28.59
30.55
30.90
30.18
28.80
27.08
25.23
23.46
21.91
20.65
19.62
18.64
17.46
15.87
13.78
11.28
8.54
5.76
3.04
0.35
-2.42
-5.40
-8.69
-12.39
-16.61
-21.50
-27.14
-33.33
-39.51
-44.70
-47.71
-47.54
-43.65
-36.22
-26.11
-14.57
-2.94
7.66
16.47
23.12
27.55
29.92
30.50
29.70
27.98
25.81
23.64
21.80
20.46
19.57
18.93
18.26
17.29
15.79
13.64
10.89
7.68
4.27
0.90
-2.25
-5.15
-7.94
-10.87
-14.18
-18.08
-22.59
-27.53
-32.47
-36.72
-39.44
-39.79
-37.18
-31.46
-23.02
-12.77
-1.89
8.44
17.32
24.20
28.88
31.44
32.07
31.06
28.83
25.90
22.84
20.18
18.24
17.08
16.52
16.19
15.72
14.79
13.25
11.05
8.31
5.21
1.95
-1.29
-4.44
-7.56
-10.82
-14.49
-18.83
-23.99
-29.85
-35.97
-41.52
-45.41
-46.58
-44.32
-38.49
-29.65
-18.79
-7.17
4.08
14.05
22.13
27.99
31.54
32.96
32.62
31.08
28.93
26.69
24.77
23.38
22.50
21.98
21.52
20.75
19.41
17.34
14.59
11.35
7.87
4.38
1.08
-1.97
-4.77
-7.48
-10.41
-14.00
-18.67
-24.58
-31.49
-38.68
-44.99
-49.14
-50.00
-46.91
-39.91
-29.71
-17.53
-4.86
6.95
16.94
24.63
30.00
33.32
34.95
35.28
34.69
33.53
32.16
30.88
29.83
29.02
28.25
27.27
25.90
24.09
21.96
19.72
17.51
15.37
13.16
10.67
7.74
4.35
0.67
-3.08
-6.72
-10.23
-13.77
-17.61
-22.02
-27.17
-33.07
-39.40
-45.51
-50.39
-52.85
-51.89
-47.07
-38.69
-27.71
-15.45
-3.15
8.26
18.14
26.15
32.01
35.61
37.07
36.80
35.45
33.74
32.21
31.15
30.58
30.35
30.25
30.06
29.60
28.72
27.39
25.64
23.61
21.47
19.36
17.36
15.49
13.64
11.62
9.21
6.19
2.49
-1.77
-6.36
-10.96
-15.32
-19.34
-23.05
-26.67
-30.49
-34.80
-39.79
-45.35
-50.98
-55.74
-58.44
-58.04
-53.92
-46.22
-35.67
-23.48
-10.95
0.79
10.92
18.93
24.64
28.09
29.55
29.44
28.33
26.80
25.41
24.54
24.31
24.55
24.91
24.96
24.43
23.30
21.78
20.22
18.89
17.88
17.06
16.14
14.80
12.79
10.06
6.72
3.02
-0.74
-4.29
-7.54
-10.57
-13.63
-17.02
-20.97
-25.56
-30.60
-35.66
-40.07
-42.99
-43.63
-41.41
-36.18
-28.31
-18.62
-8.20
1.90
10.82
18.05
23.35
26.72
28.32
28.42
27.41
25.80
24.10
22.74
21.93
21.64
21.59
21.42
20.84
19.74
18.21
16.47
14.74
13.13
11.55
9.84
7.77
5.23
2.20
-1.20
-4.79
-8.35
-11.73
-14.86
-17.86
-20.99
-24.64
-29.10
-34.42
-40.18
-45.53
-49.31
-50.44
-48.19
-42.48
-33.88
-23.40
-12.19
-1.31
8.45
16.55
22.70
26.76
28.78
29.02
27.98
26.31
24.67
23.55
23.13
23.31
23.73
23.96
23.67
22.70
21.13
19.21
17.25
15.47
13.97
12.68
11.35
9.72
7.56
4.75
1.35
-2.41
-6.28
-10.04
-13.57
-16.95
-20.38
-24.12
-28.42
-33.34
-38.74
-44.18
-48.95
-52.09
-52.65
-49.90
-43.67
-34.45
-23.31
-11.58
-0.52
9.01
16.61
22.16
25.81
27.75
28.31
27.89
26.97
25.99
25.25
24.83
24.68
24.65
24.63
24.47
24.04
23.25
22.03
20.45
18.69
16.93
15.31
13.82
12.32
10.63
8.60
6.12
3.14
-0.32
-4.14
-8.16
-12.10
-15.75
-19.06
-22.13
-25.24
-28.75
-32.93
-37.89
-43.42
-48.93
-53.46
-55.85
-55.06
-50.54
-42.55
-32.05
-20.47
-9.19
0.85
9.21
15.83
20.78
24.11
25.88
26.26
25.66
24.62
23.67
23.13
23.02
23.13
23.15
22.81
22.00
20.75
19.21
17.63
16.20
15.05
14.18
13.44
12.55
11.22
9.18
6.34
2.78
-1.21
-5.27
-9.04
-12.33
-15.17
-17.76
-20.45
-23.54
-27.27
-31.76
-36.88
-42.20
-46.96
-50.14
-50.68
-47.85
-41.54
-32.36
-21.49
-10.26
0.12
8.84
15.50
20.05
22.63
23.59
23.40
22.57
21.62
20.89
20.50
20.31
20.09
19.58
18.64
17.29
15.70
14.12
12.75
11.69
10.83
9.97
8.84
7.29
5.27
2.88
0.23
-2.57
-5.49
-8.52
-11.69
-15.08
-18.78
-22.88
-27.33
-31.83
-35.75
-38.30
-38.65
-36.27
-31.07
-23.50
-14.36
-4.64
4.71
12.91
19.46
24.07
26.72
27.51
26.74
24.83
22.30
19.70
17.51
16.00
15.16
14.75
14.46
14.01
13.28
12.30
11.16
9.94
8.59
6.98
4.96
2.44
-0.57
-3.89
-7.27
-10.48
-13.35
-15.97
-18.61
-21.71
-25.65
-30.61
-36.43
-42.54
-48.03
-51.85
-53.00
-50.82
-45.13
-36.38
-25.52
-13.78
-2.36
7.78
16.09
22.34
26.57
28.93
29.68
29.20
27.94
26.37
24.84
23.51
22.39
21.36
20.31
19.22
18.12
17.06
16.03
15.00
13.85
12.47
10.74
8.57
5.90
2.78
-0.68
-4.28
-7.83
-11.18
-14.33
-17.40
-20.64
-24.40
-29.00
-34.57
-40.87
-47.17
-52.30
-54.98
-54.15
-49.37
-40.99
-30.01
-17.76
-5.60
5.43
14.65
21.78
26.80
29.90
31.40
31.72
31.27
30.43
29.46
28.50
27.55
26.52
25.29
23.83
22.20
20.61
19.27
18.33
17.73
17.21
16.36
14.76
12.17
8.57
4.25
-0.29
-4.56
-8.19
-11.12
-13.67
-16.36
-19.81
-24.44
-30.27
-36.90
-43.47
-48.81
-51.67
-51.07
-46.49
-38.19
-27.06
-14.47
-1.86
9.58
19.11
26.36
31.27
33.93
34.57
33.62
31.69
29.50
27.64
26.43
25.82
25.51
25.08
24.21
22.78
20.89
18.83
16.86
15.16
13.69
12.20
10.40
8.03
5.05
1.63
-1.98
-5.60
-9.12
-12.65
-16.34
-20.40
-24.97
-30.09
-35.58
-40.98
-45.52
-48.14
-47.89
-44.13
-36.87
-26.75
-14.96
-2.86
8.32
17.68
24.76
29.47
32.04
32.81
32.19
30.56
28.28
25.76
23.34
21.35
19.90
18.95
18.28
17.62
16.79
15.71
14.35
12.65
10.53
7.97
5.04
1.99
-0.91
-3.47
-5.71
-7.84
-10.24
-13.28
-17.31
-22.45
-28.47
-34.64
-39.81
-42.59
-41.84
-37.09
-28.72
-17.88
-6.07
5.29
15.12
22.77
27.99
30.81
31.49
30.54
28.57
26.20
23.90
21.92
20.34
19.08
17.99
16.87
15.50
13.78
11.70
9.42
7.14
5.02
3.06
1.14
-0.95
-3.36
-6.24
-9.62
-13.57
-18.10
-23.23
-28.81
-34.54
-39.86
-44.00
-46.09
-45.33
-41.24
-33.90
-23.99
-12.67
-1.23
9.20
17.94
24.68
29.41
32.20
33.14
32.41
30.33
27.37
24.11
21.05
18.51
16.60
15.24
14.23
13.33
12.32
11.03
9.37
7.32
4.85
1.93
-1.48
-5.34
-9.46
-13.57
-17.46
-21.11
-24.80
-28.98
-33.97
-39.65
-45.29
-49.66
-51.43
-49.62
-43.97
-35.01
-23.89
-11.98
-0.57
9.45
17.53
23.49
27.33
29.15
29.18
27.79
25.49
22.89
20.56
18.87
17.90
17.49
17.33
17.11
16.55
15.50
13.95
11.94
9.63
7.17
4.70
2.26
-0.19
-2.82
-5.83
-9.47
-13.96
-19.46
-25.95
-33.05
-40.00
-45.61
-48.62
-47.96
-43.19
-34.66
-23.40
-10.86
1.52
12.55
21.51
28.11
32.35
34.50
34.89
33.92
32.01
29.58
27.00
24.56
22.45
20.68
19.18
17.82
16.46
15.03
13.50
11.86
10.10
8.17
6.03
3.60
0.83
-2.32
-5.81
-9.60
-13.69
-18.11
-22.93
-28.10
-33.27
-37.70
-40.38
-40.28
-36.81
-30.03
-20.71
-10.12
0.44
9.92
17.67
23.46
27.27
29.18
29.37
28.15
25.92
23.19
20.46
18.13
16.41
15.31
14.68
14.24
13.70
12.81
11.44
9.61
7.42
5.00
2.42
-0.29
-3.14
-6.12
-9.24
-12.55
-16.20
-20.41
-25.25
-30.46
-35.33
-38.73
-39.48
-36.77
-30.47
-21.28
-10.44
0.57
10.51
18.59
24.48
28.21
29.97
30.07
28.82
26.64
24.03
21.48
19.38
17.92
17.05
16.53
16.01
15.21
13.91
12.09
9.82
7.23
4.45
1.60
-1.28
-4.22
-7.25
-10.47
-13.99
-17.95
-22.50
-27.72
-33.52
-39.47
-44.83
-48.59
-49.71
-47.47
-41.67
-32.75
-21.68
-9.71
1.90
12.14
20.31
26.12
29.58
31.03
30.99
30.06
28.83
27.67
26.79
26.12
25.46
24.60
23.40
21.85
20.10
18.33
16.73
15.29
13.86
12.16
9.95
7.14
3.82
0.29
-3.18
-6.41
-9.45
-12.59
-16.21
-20.62
-25.94
-31.96
-38.05
-43.24
-46.44
-46.66
-43.32
-36.46
-26.79
-15.47
-3.87
6.82
15.82
22.75
27.60
30.55
31.82
31.70
30.56
28.85
27.10
25.76
25.11
25.11
25.43
25.66
25.42
24.55
23.14
21.39
19.54
17.72
15.91
14.03
11.95
9.60
6.95
4.03
0.91
-2.32
-5.56
-8.73
-11.85
-15.03
-18.47
-22.46
-27.25
-32.86
-39.02
-45.05
-49.93
-52.56
-52.01
-47.85
-40.30
-30.22
-18.86
-7.50
2.84
11.56
18.43
23.50
26.88
28.69
29.08
28.31
26.77
24.97
23.40
22.40
22.05
22.18
22.50
22.70
22.59
22.06
21.11
19.74
18.01
16.00
13.84
11.65
9.50
7.35
5.06
2.48
-0.43
-3.59
-6.80
-9.87
-12.74
-15.48
-18.32
-21.48
-25.18
-29.46
-34.21
-39.11
-43.58
-46.88
-48.21
-46.90
-42.62
-35.51
-26.21
-15.70
-5.09
4.62
12.73
18.82
22.77
24.69
24.86
23.71
21.79
19.67
17.91
16.86
16.66
17.11
17.82
18.35
18.35
17.75
16.65
15.29
13.87
12.47
10.99
9.30
7.30
4.98
2.46
-0.13
-2.69
-5.20
-7.75
-10.51
-13.65
-17.36
-21.67
-26.37
-30.94
-34.60
-36.45
-35.77
-32.21
-25.94
-17.63
-8.24
1.19
9.79
16.93
22.28
25.73
27.36
27.44
26.39
24.68
22.80
21.08
19.65
18.45
17.35
16.20
14.95
13.64
12.32
11.01
9.66
8.14
6.34
4.18
1.64
-1.23
-4.33
-7.49
-10.53
-13.33
-15.87
-18.30
-20.91
-24.06
-28.06
-32.97
-38.48
-43.83
-47.91
-49.52
-47.73
-42.26
-33.57
-22.83
-11.47
-0.83
8.22
15.30
20.40
23.72
25.48
25.92
25.30
23.97
22.34
20.82
19.68
19.03
18.76
18.62
18.33
17.67
16.60
15.22
13.78
12.46
11.30
10.15
8.74
6.84
4.35
1.35
-1.95
-5.29
-8.46
-11.41
-14.23
-17.10
-20.29
-24.03
-28.43
-33.38
-38.48
-43.01
-46.05
-46.65
-44.17
-38.44
-29.92
-19.55
-8.57
1.85
10.83
17.88
22.88
25.94
27.31
27.29
26.27
24.68
22.97
21.51
20.52
20.03
19.84
19.70
19.37
18.73
17.76
16.60
15.35
14.12
12.89
11.55
9.92
7.84
5.24
2.21
-1.04
-4.26
-7.25
-9.99
-12.62
-15.36
-18.43
-22.00
-26.11
-30.68
-35.41
-39.74
-42.84
-43.77
-41.76
-36.56
-28.60
-18.85
-8.57
1.14
9.54
16.32
21.43
24.91
26.82
27.28
26.50
24.88
22.90
21.01
19.54
18.62
18.26
18.28
18.49
18.64
18.51
17.93
16.84
15.26
13.37
11.37
9.47
7.76
6.18
4.52
2.53
0.04
-2.94
-6.24
-9.60
-12.77
-15.66
-18.34
-20.99
-23.86
-27.18
-31.04
-35.33
-39.61
-43.11
-44.92
-44.17
-40.39
-33.64
-24.57
-14.18
-3.62
6.09
14.18
20.21
24.02
25.68
25.50
23.97
21.66
19.18
17.02
15.52
14.73
14.52
14.59
14.64
14.44
13.96
13.24
12.40
11.46
10.38
9.03
7.32
5.20
2.75
0.12
-2.49
-4.96
-7.24
-9.49
-12.02
-15.19
-19.27
-24.21
-29.53
-34.34
-37.58
-38.29
-35.90
-30.43
-22.45
-12.93
-2.96
6.44
14.52
20.76
24.94
27.07
27.37
26.22
24.20
21.88
19.78
18.16
17.05
16.26
15.51
14.61
13.49
12.26
11.05
9.97
9.04
8.18
7.16
5.74
3.66
0.84
-2.64
-6.45
-10.14
-13.27
-15.70
-17.62
-19.51
-22.03
-25.67
-30.60
-36.51
-42.61
-47.75
-50.66
-50.25
-45.98
-38.02
-27.27
-15.15
-3.14
7.53
16.10
22.27
26.07
27.74
27.64
26.33
24.45
22.63
21.31
20.59
20.28
20.00
19.41
18.34
16.89
15.32
13.93
12.94
12.37
12.02
11.51
10.40
8.40
5.47
1.89
-1.92
-5.53
-8.74
-11.62
-14.41
-17.44
-20.99
-25.17
-29.93
-34.90
-39.41
-42.57
-43.41
-41.20
-35.75
-27.51
-17.45
-6.75
3.49
12.45
19.67
24.91
28.12
29.34
28.82
26.98
24.43
21.81
19.62
18.15
17.37
17.04
16.84
16.52
15.97
15.23
14.37
13.46
12.43
11.14
9.45
7.26
4.61
1.64
-1.42
-4.39
-7.16
-9.74
-12.29
-15.03
-18.21
-22.06
-26.66
-31.84
-37.14
-41.76
-44.74
-45.13
-42.32
-36.25
-27.50
-17.11
-6.32
3.77
12.38
19.13
23.90
26.76
27.89
27.53
26.07
23.95
21.66
19.55
17.82
16.51
15.59
14.99
14.64
14.44
14.21
13.72
12.79
11.33
9.44
7.31
5.15
3.11
1.25
-0.46
-2.16
-4.05
-6.46
-9.74
-14.11
-19.55
-25.54
-31.19
-35.35
-36.93
-35.22
-30.09
-22.06
-12.15
-1.65
8.18
16.36
22.38
26.14
27.87
27.99
26.93
25.12
22.99
20.90
19.10
17.72
16.69
15.81
14.87
13.72
12.34
10.75
9.02
7.17
5.21
3.16
1.01
-1.21
-3.46
-5.74
-8.07
-10.47
-13.02
-15.86
-19.21
-23.28
-28.17
-33.68
-39.20
-43.74
-46.18
-45.58
-41.50
-34.21
-24.57
-13.82
-3.19
6.34
14.17
20.06
23.98
26.07
26.61
25.93
24.49
22.75
21.10
19.76
18.76
18.03
17.42
16.85
16.30
15.76
15.22
14.57
13.66
12.34
10.50
8.14
5.37
2.37
-0.62
-3.47
-6.15
-8.78
-11.63
-15.01
-19.12
-23.93
-29.02
-33.66
-36.85
-37.66
-35.47
-30.16
-22.18
-12.43
-2.06
7.79
16.23
22.71
27.03
29.33
29.93
29.27
27.79
25.91
23.96
22.16
20.64
19.41
18.42
17.58
16.78
15.94
14.97
13.81
12.34
10.48
8.18
5.50
2.58
-0.36
-3.17
-5.77
-8.26
-10.82
-13.72
-17.20
-21.36
-26.17
-31.33
-36.21
-39.94
-41.55
-40.23
-35.66
-28.14
-18.58
-8.21
1.76
10.39
17.14
21.86
24.59
25.56
25.10
23.67
21.76
19.83
18.20
16.98
16.11
15.44
14.82
14.16
13.43
12.56
11.51
10.23
8.66
6.80
4.64
2.24
-0.29
-2.77
-5.06
-7.12
-9.13
-11.44
-14.46
-18.45
-23.27
-28.34
-32.71
-35.28
-35.13
-31.80
-25.46
-16.88
-7.22
2.26
10.55
17.03
21.51
24.15
25.19
24.90
23.55
21.44
18.97
16.59
14.71
13.52
12.97
12.77
12.57
12.07
11.09
9.63
7.76
5.58
3.20
0.70
-1.80
-4.18
-6.34
-8.27
-10.11
-12.18
-14.89
-18.61
-23.42
-28.95
-34.35
-38.40
-39.90
-38.05
-32.70
-24.44
-14.40
-3.93
5.76
13.82
19.76
23.51
25.25
25.33
24.18
22.30
20.15
18.07
16.29
14.87
13.79
12.95
12.28
11.70
11.12
10.38
9.32
7.77
5.67
3.09
0.22
-2.68
-5.37
-7.77
-9.94
-12.11
-14.63
-17.88
-22.07
-27.16
-32.68
-37.75
-41.24
-42.08
-39.59
-33.72
-25.09
-14.76
-4.00
6.05
14.51
20.87
24.96
26.90
27.06
25.96
24.18
22.23
20.46
19.02
17.88
16.91
15.95
14.89
13.71
12.47
11.23
10.02
8.77
7.34
5.61
3.57
1.28
-1.08
-3.38
-5.66
-8.11
-11.05
-14.81
-19.57
-25.18
-31.12
-36.50
-40.20
-41.20
-38.86
-33.18
-24.83
-14.93
-4.76
4.60
12.44
18.42
22.45
24.64
25.21
24.54
23.09
21.34
19.65
18.21
17.03
16.00
15.01
14.02
13.02
12.03
11.03
9.97
8.75
7.30
5.58
3.59
1.40
-0.91
-3.21
-5.47
-7.75
-10.23
-13.20
-16.91
-21.47
-26.63
-31.75
-35.86
-37.91
-37.10
-33.13
-26.34
-17.56
-7.93
1.46
9.72
16.29
20.87
23.42
24.09
23.25
21.39
19.09
16.89
15.13
13.95
13.33
13.09
13.05
13.02
12.83
12.32
11.41
10.04
8.28
6.21
4.00
1.76
-0.44
-2.66
-5.03
-7.75
-11.02
-14.97
-19.53
-24.39
-28.98
-32.49
-34.09
-33.13
-29.33
-22.94
-14.66
-5.53
3.38
11.14
17.18
21.27
23.48
24.06
23.44
22.07
20.39
18.74
17.30
16.07
14.96
13.83
12.65
11.42
10.15
8.83
7.37
5.67
3.76
1.68
-0.44
-2.54
-4.66
-6.90
-9.42
-12.35
-15.88
-20.13
-25.18
-30.81
-36.44
-41.11
-43.71
-43.31
-39.52
-32.62
-23.49
-13.31
-3.21
5.93
13.54
19.35
23.29
25.47
26.08
25.46
24.00
22.15
20.26
18.55
17.13
15.99
15.08
14.36
13.80
13.33
12.81
12.05
10.86
9.10
6.82
4.19
1.46
-1.12
-3.50
-5.77
-8.22
-11.15
-14.85
-19.41
-24.67
-30.13
-35.02
-38.41
-39.39
-37.34
-32.14
-24.21
-14.46
-4.06
5.87
14.42
21.09
25.70
28.37
29.38
29.06
27.78
25.92
23.83
21.84
20.14
18.83
17.83
17.01
16.19
15.29
14.33
13.36
12.44
11.52
10.43
8.96
6.96
4.39
1.42
-1.70
-4.73
-7.54
-10.16
-12.80
-15.76
-19.33
-23.70
-28.79
-34.18
-39.07
-42.41
-43.21
-40.79
-35.04
-26.55
-16.39
-5.81
4.09
12.55
19.24
24.06
27.02
28.17
27.66
25.83
23.23
20.50
18.21
16.66
15.82
15.46
15.34
15.24
15.11
14.91
14.58
13.97
12.93
11.32
9.14
6.49
3.57
0.68
-1.92
-4.04
-5.68
-7.05
-8.51
-10.50
-13.36
-17.25
-22.07
-27.47
-32.81
-37.22
-39.72
-39.47
-36.06
-29.67
-21.06
-11.35
-1.71
6.96
14.09
19.46
23.04
24.96
25.48
24.91
23.63
21.98
20.20
18.47
16.89
15.56
14.53
13.77
13.14
12.49
11.68
10.70
9.60
8.43
7.13
5.56
3.55
1.08
-1.71
-4.57
-7.31
-9.93
-12.68
-15.94
-19.97
-24.66
-29.43
-33.30
-35.16
-34.15
-29.98
-23.03
-14.22
-4.70
4.40
12.22
18.24
22.28
24.38
24.80
23.92
22.20
20.06
17.89
15.89
14.20
12.81
11.65
10.64
9.68
8.74
7.80
6.87
5.89
4.76
3.33
1.52
-0.67
-3.12
-5.64
-8.13
-10.61
-13.25
-16.31
-20.04
-24.56
-29.72
-35.05
-39.76
-42.84
-43.30
-40.48
-34.32
-25.43
-14.94
-4.20
5.57
13.52
19.27
22.83
24.47
24.66
23.90
22.68
21.34
20.02
18.72
17.39
16.04
14.80
13.82
13.19
12.75
12.19
11.17
9.49
7.23
4.66
2.09
-0.31
-2.55
-4.80
-7.24
-10.00
-13.14
-16.73
-20.83
-25.47
-30.43
-35.19
-38.85
-40.40
-38.99
-34.27
-26.53
-16.67
-5.92
4.43
13.35
20.20
24.75
27.13
27.71
26.95
25.35
23.31
21.16
19.13
17.39
16.07
15.19
14.69
14.39
14.09
13.58
12.73
11.53
9.97
8.07
5.78
3.15
0.28
-2.66
-5.42
-7.90
-10.20
-12.62
-15.59
-19.47
-24.35
-29.94
-35.57
-40.27
-42.98
-42.83
-39.36
-32.71
-23.59
-13.11
-2.50
7.13
15.08
20.98
24.78
26.62
26.75
25.54
23.47
21.08
18.87
17.18
16.10
15.48
15.03
14.51
13.77
12.79
11.66
10.46
9.19
7.79
6.16
4.23
2.01
-0.42
-2.93
-5.38
-7.70
-9.95
-12.28
-14.92
-18.13
-22.10
-26.81
-31.94
-36.75
-40.25
-41.40
-39.40
-34.09
-25.95
-16.05
-5.68
3.96
12.03
18.13
22.23
24.49
25.17
24.56
22.99
20.86
18.55
16.44
14.76
13.56
12.73
12.07
11.39
10.60
9.73
8.86
8.04
7.23
6.24
4.83
2.82
0.23
-2.71
-5.72
-8.50
-11.05
-13.64
-16.67
-20.43
-24.84
-29.30
-32.83
-34.37
-33.14
-28.85
-21.86
-12.97
-3.23
6.27
14.64
21.25
25.76
28.12
28.45
27.11
24.59
21.47
18.36
15.77
13.96
12.93
12.45
12.17
11.75
10.96
9.74
8.12
6.17
3.96
1.57
-0.94
-3.48
-5.99
-8.46
-11.00
-13.75
-16.97
-20.88
-25.57
-30.79
-35.94
-40.06
-42.06
-41.09
-36.78
-29.41
-19.80
-9.12
1.44
10.86
18.47
23.89
27.08
28.24
27.78
26.23
24.10
21.78
19.52
17.46
15.70
14.30
13.29
12.62
12.09
11.43
10.36
8.76
6.69
4.34
1.94
-0.37
-2.60
-4.84
-7.25
-9.95
-13.06
-16.72
-21.11
-26.25
-31.90
-37.34
-41.49
-43.16
-41.48
-36.21
-27.89
-17.68
-6.91
3.21
11.92
18.85
23.94
27.26
28.93
29.15
28.21
26.51
24.46
22.41
20.54
18.92
17.56
16.41
15.48
14.73
14.04
13.24
12.15
10.57
8.47
5.93
3.16
0.39
-2.22
-4.62
-6.93
-9.39
-12.33
-16.03
-20.62
-25.97
-31.57
-36.59
-39.94
-40.58
-37.81
-31.55
-22.41
-11.57
-0.48
9.57
17.68
23.46
26.94
28.42
28.36
27.22
25.49
23.59
21.85
20.46
19.42
18.64
17.96
17.22
16.30
15.14
13.74
12.15
10.45
8.71
6.95
5.15
3.20
1.03
-1.40
-4.07
-6.93
-10.02
-13.45
-17.39
-21.94
-26.95
-31.98
-36.27
-38.85
-38.86
-35.79
-29.72
-21.32
-11.67
-1.93
6.97
14.44
20.26
24.33
26.67
27.34
26.56
24.76
22.53
20.40
18.70
17.48
16.56
15.74
14.95
14.20
13.56
12.96
12.20
11.04
9.32
7.02
4.31
1.43
-1.42
-4.09
-6.55
-8.81
-10.95
-13.17
-15.77
-19.09
-23.36
-28.41
-33.59
-37.83
-39.92
-38.93
-34.57
-27.25
-17.94
-7.87
1.81
10.23
16.86
21.46
24.06
24.86
24.23
22.65
20.60
18.48
16.59
15.09
14.01
13.32
12.84
12.32
11.51
10.30
8.71
7.00
5.40
4.08
3.02
2.01
0.81
-0.77
-2.76
-5.16
-7.94
-11.21
-15.11
-19.68
-24.62
-29.23
-32.50
-33.37
-31.15
-25.79
-18.01
-9.05
-0.25
7.38
13.35
17.69
20.67
22.53
23.36
23.15
21.94
19.99
17.68
15.43
13.53
12.07
10.97
10.12
9.43
8.81
8.23
7.56
6.68
5.41
3.58
1.14
-1.84
-5.10
-8.36
-11.35
-14.05
-16.71
-19.72
-23.44
-27.85
-32.41
-36.24
-38.26
-37.62
-33.92
-27.35
-18.59
-8.66
1.31
10.33
17.65
22.87
25.91
26.91
26.14
24.00
20.99
17.71
14.79
12.73
11.74
11.65
11.99
12.24
11.97
11.00
9.41
7.37
5.07
2.66
0.24
-2.14
-4.40
-6.56
-8.67
-10.90
-13.47
-16.63
-20.59
-25.35
-30.57
-35.52
-39.18
-40.43
-38.50
-33.20
-25.06
-15.18
-4.84
4.80
12.96
19.26
23.62
26.13
27.01
26.56
25.19
23.39
21.57
19.98
18.69
17.64
16.72
15.82
14.89
13.94
12.99
12.04
11.04
9.81
8.13
5.82
2.85
-0.59
-4.13
-7.39
-10.18
-12.61
-15.05
-18.01
-21.85
-26.57
-31.77
-36.65
-40.19
-41.45
-39.78
-34.97
-27.38
-17.83
-7.39
2.81
11.82
19.04
24.18
27.26
28.49
28.18
26.73
24.59
22.24
20.11
18.54
17.58
17.04
16.57
15.85
14.72
13.27
11.68
10.12
8.57
6.91
4.99
2.80
0.44
-1.94
-4.24
-6.48
-8.81
-11.39
-14.38
-17.97
-22.28
-27.25
-32.59
-37.61
-41.31
-42.66
-40.86
-35.73
-27.73
-17.89
-7.52
2.12
10.09
15.93
19.61
21.47
21.95
21.51
20.50
19.18
17.79
16.50
15.42
14.56
13.82
13.09
12.29
11.45
10.66
9.97
9.34
8.57
7.45
5.82
3.73
1.38
-0.98
-3.19
-5.25
-7.34
-9.76
-12.82
-16.66
-21.21
-26.00
-30.25
-33.00
-33.32
-30.65
-24.99
-16.99
-7.73
1.55
9.80
16.35
20.99
23.76
24.90
24.64
23.22
20.95
18.25
15.63
13.55
12.30
11.86
11.91
12.01
11.75
10.92
9.48
7.55
5.30
2.89
0.49
-1.74
-3.67
-5.28
-6.69
-8.21
-10.24
-13.17
-17.17
-22.13
-27.51
-32.44
-35.85
-36.72
-34.45
-28.99
-20.97
-11.43
-1.63
7.37
14.81
20.32
23.84
25.55
25.73
24.81
23.23
21.39
19.59
17.99
16.58
15.32
14.10
12.90
11.67
10.42
9.15
7.83
6.41
4.82
2.95
0.75
-1.79
-4.57
-7.42
-10.22
-12.94
-15.75
-18.94
-22.81
-27.44
-32.49
-37.25
-40.68
-41.79
-39.90
-34.91
-27.29
-17.97
-8.04
1.50
9.90
16.71
21.73
24.91
26.41
26.47
25.50
24.00
22.43
21.07
20.05
19.27
18.58
17.83
16.99
16.09
15.16
14.17
12.97
11.40
9.36
6.85
4.04
1.12
-1.73
-4.45
-7.10
-9.84
-12.85
-16.33
-20.41
-25.07
-30.07
-34.87
-38.62
-40.38
-39.34
-35.16
-28.07
-18.87
-8.69
1.32
10.28
17.60
23.07
26.66
28.54
28.94
28.24
26.89
25.31
23.85
22.71
21.91
21.33
20.78
20.07
19.08
17.81
16.35
14.93
13.77
12.94
12.31
11.54
10.20
8.00
4.95
1.32
-2.42
-5.88
-8.86
-11.43
-13.80
-16.30
-19.23
-22.84
-27.26
-32.36
-37.67
-42.34
-45.32
-45.62
-42.66
-36.45
-27.63
-17.24
-6.48
3.58
12.13
18.74
23.24
25.74
26.51
25.94
24.48
22.65
20.95
19.77
19.26
19.32
19.59
19.63
19.06
17.76
15.89
13.82
11.95
10.53
9.54
8.74
7.73
6.19
3.99
1.23
-1.83
-4.91
-7.86
-10.68
-13.53
-16.64
-20.18
-24.23
-28.71
-33.29
-37.43
-40.42
-41.49
-40.07
-35.93
-29.29
-20.81
-11.37
-1.92
6.70
13.88
19.24
22.64
24.18
24.16
23.02
21.28
19.39
17.65
16.23
15.18
14.43
13.89
13.44
12.94
12.32
11.49
10.43
9.17
7.74
6.13
4.34
2.32
0.11
-2.20
-4.49
-6.72
-8.97
-11.50
-14.65
-18.65
-23.42
-28.52
-33.08
-36.11
-36.68
-34.26
-28.85
-21.00
-11.62
-1.81
7.38
15.12
20.92
24.58
26.24
26.27
25.17
23.41
21.40
19.34
17.33
15.44
13.70
12.19
10.96
10.02
9.35
8.91
8.53
8.03
7.12
5.54
3.19
0.14
-3.29
-6.73
-9.88
-12.68
-15.27
-17.99
-21.17
-24.97
-29.36
-33.94
-38.01
-40.62
-40.78
-37.83
-31.68
-22.97
-12.84
-2.60
6.64
14.22
19.93
23.86
26.15
26.92
26.34
24.66
22.32
19.80
17.58
15.90
14.80
14.12
13.66
13.24
12.71
11.95
10.80
9.09
6.78
3.96
0.90
-2.09
-4.79
-7.19
-9.46
-11.89
-14.79
-18.41
-22.87
-28.10
-33.80
-39.37
-43.85
-46.16
-45.34
-40.97
-33.31
-23.31
-12.29
-1.62
7.68
15.02
20.30
23.70
25.56
26.26
26.13
25.44
24.45
23.35
22.26
21.18
20.03
18.69
17.10
15.32
13.60
12.23
11.35
10.84
10.32
9.30
7.42
4.62
1.10
-2.74
-6.53
-10.10
-13.41
-16.64
-20.07
-24.01
-28.68
-33.98
-39.38
-43.89
-46.32
-45.64
-41.36
-33.81
-23.89
-12.88
-1.98
7.89
16.18
22.63
27.17
29.86
30.87
30.51
29.20
27.39
25.54
23.96
22.80
21.98
21.28
20.43
19.28
17.85
16.29
14.77
13.34
11.89
10.20
8.08
5.50
2.59
-0.42
-3.33
-6.11
-8.90
-11.94
-15.51
-19.84
-24.98
-30.72
-36.49
-41.40
-44.36
-44.38
-40.89
-33.98
-24.42
-13.43
-2.38
7.60
15.80
21.96
26.14
28.52
29.34
28.90
27.49
25.54
23.45
21.57
20.09
18.97
18.06
17.19
16.26
15.29
14.34
13.48
12.63
11.65
10.31
8.42
5.91
2.89
-0.43
-3.73
-6.71
-9.18
-11.18
-13.02
-15.21
-18.36
-22.86
-28.66
-35.14
-41.17
-45.38
-46.56
-44.01
-37.74
-28.48
-17.41
-5.89
4.81
13.73
20.28
24.26
25.88
25.63
24.21
22.34
20.63
19.37
18.58
18.04
17.49
16.75
15.80
14.70
13.56
12.41
11.24
10.00
8.64
7.13
5.47
3.61
1.53
-0.77
-3.28
-5.99
-8.89
-12.07
-15.65
-19.68
-24.09
-28.49
-32.22
-34.41
-34.23
-31.16
-25.17
-16.83
-7.15
2.66
11.52
18.66
23.72
26.74
27.96
27.73
26.44
24.48
22.17
19.81
17.65
15.81
14.42
13.48
12.91
12.48
11.90
10.90
9.34
7.24
4.78
2.17
-0.45
-3.04
-5.63
-8.25
-10.95
-13.83
-17.06
-20.92
-25.58
-30.87
-36.17
-40.41
-42.36
-41.11
-36.31
-28.37
-18.26
-7.26
3.44
12.86
20.40
25.73
28.80
29.76
28.97
26.95
24.35
21.75
19.58
17.97
16.81
15.83
14.75
13.40
11.76
9.92
7.97
6.00
4.01
2.03
0.06
-1.92
-3.95
-6.15
-8.71
-11.82
-15.68
-20.38
-25.93
-32.11
-38.37
-43.82
-47.35
-47.90
-44.82
-38.14
-28.59
-17.40
-5.92
4.70
13.72
20.78
25.86
29.10
30.68
30.84
29.86
28.07
25.83
23.49
21.30
19.44
17.94
16.78
15.90
15.22
14.59
13.81
12.62
10.82
8.35
5.30
1.94
-1.49
-4.84
-8.08
-11.34
-14.78
-18.59
-22.94
-27.87
-33.18
-38.30
-42.30
-44.07
-42.65
-37.64
-29.36
-18.76
-7.15
4.18
14.23
22.34
28.19
31.73
33.12
32.72
31.06
28.76
26.36
24.28
22.71
21.66
20.97
20.40
19.71
18.77
17.53
16.00
14.25
12.26
10.00
7.41
4.51
1.41
-1.74
-4.79
-7.71
-10.62
-13.77
-17.46
-21.93
-27.20
-32.97
-38.51
-42.79
-44.68
-43.33
-38.46
-30.50
-20.43
-9.48
1.22
10.81
18.78
24.83
28.86
30.88
31.10
29.94
28.02
25.96
24.20
22.96
22.16
21.60
20.99
20.16
19.08
17.83
16.55
15.30
14.05
12.62
10.81
8.49
5.64
2.42
-0.98
-4.33
-7.47
-10.34
-13.01
-15.74
-18.90
-22.91
-28.00
-34.02
-40.31
-45.76
-49.08
-49.20
-45.56
-38.31
-28.26
-16.68
-4.96
5.66
14.31
20.58
24.47
26.25
26.32
25.15
23.27
21.17
19.32
18.01
17.31
17.03
16.87
16.51
15.74
14.54
12.96
11.12
9.19
7.29
5.55
4.01
2.56
1.00
-0.92
-3.39
-6.44
-10.00
-14.00
-18.39
-23.10
-27.94
-32.38
-35.68
-36.89
-35.31
-30.69
-23.36
-14.20
-4.35
5.10
13.34
19.93
24.72
27.74
29.05
28.77
27.14
24.51
21.40
18.36
15.80
13.95
12.73
11.96
11.35
10.67
9.76
8.49
6.77
4.59
1.99
-0.89
-3.86
-6.75
-9.46
-12.02
-14.59
-17.43
-20.83
-25.01
-29.95
-35.23
-40.01
-43.19
-43.67
-40.76
-34.43
-25.27
-14.36
-3.02
7.58
16.50
23.19
27.43
29.34
29.30
27.85
25.60
23.07
20.64
18.53
16.77
15.32
14.14
13.11
12.15
11.17
10.01
8.54
6.68
4.40
1.83
-0.81
-3.38
-5.82
-8.24
-10.88
-13.97
-17.70
-22.19
-27.40
-33.10
-38.79
-43.61
-46.45
-46.25
-42.34
-34.77
-24.36
-12.48
-0.65
9.87
18.33
24.46
28.37
30.32
30.65
29.72
27.91
25.66
23.39
21.39
19.82
18.63
17.65
16.67
15.54
14.24
12.81
11.29
9.66
7.77
5.48
2.70
-0.51
-3.91
-7.24
-10.27
-13.01
-15.67
-18.69
-22.50
-27.30
-32.88
-38.53
-43.15
-45.53
-44.68
-40.20
-32.35
-22.04
-10.50
1.00
11.41
19.99
26.32
30.27
31.94
31.66
29.98
27.54
24.98
22.76
21.10
20.00
19.27
18.67
18.02
17.18
16.13
14.86
13.39
11.72
9.82
7.65
5.20
2.47
-0.44
-3.49
-6.63
-9.88
-13.34
-17.15
-21.46
-26.36
-31.76
-37.25
-42.02
-44.98
-45.05
-41.61
-34.74
-25.26
-14.46
-3.64
6.21
14.56
21.15
25.82
28.42
28.93
27.66
25.29
22.75
20.84
19.96
19.95
20.32
20.48
20.09
19.09
17.68
16.05
14.34
12.54
10.62
8.56
6.43
4.31
2.25
0.15
-2.09
-4.59
-7.38
-10.37
-13.51
-16.85
-20.56
-24.92
-30.01
-35.54
-40.73
-44.43
-45.46
-43.03
-37.03
-28.10
-17.40
-6.29
4.00
12.57
19.00
23.18
25.33
25.80
25.06
23.61
21.96
20.48
19.41
18.74
18.32
17.89
17.22
16.19
14.82
13.26
11.66
10.15
8.76
7.41
5.97
4.27
2.21
-0.21
-2.92
-5.78
-8.71
-11.76
-15.15
-19.11
-23.67
-28.48
-32.76
-35.52
-35.81
-33.12
-27.51
-19.60
-10.36
-0.87
7.95
15.36
20.95
24.57
26.32
26.47
25.44
23.67
21.57
19.41
17.38
15.58
14.05
12.78
11.74
10.89
10.15
9.40
8.49
7.27
5.57
3.34
0.63
-2.39
-5.49
-8.50
-11.38
-14.27
-17.43
-21.17
-25.60
-30.61
-35.73
-40.19
-43.03
-43.37
-40.62
-34.65
-25.91
-15.29
-3.99
6.72
15.77
22.46
26.56
28.28
28.14
26.77
24.75
22.52
20.37
18.51
17.04
16.00
15.35
14.89
14.37
13.56
12.30
10.60
8.57
6.33
3.96
1.44
-1.31
-4.32
-7.51
-10.79
-14.09
-17.48
-21.23
-25.64
-30.84
-36.49
-41.69
-45.17
-45.71
-42.64
-36.06
-26.87
-16.36
-5.80
3.90
12.24
18.99
24.06
27.42
29.15
29.50
28.90
27.86
26.79
25.90
25.11
24.18
22.80
20.81
18.23
15.35
12.57
10.22
8.40
6.93
5.39
3.37
0.70
-2.51
-5.92
-9.20
-12.20
-14.94
-17.64
-20.61
-24.13
-28.40
-33.37
-38.63
-43.37
-46.47
-46.83
-43.71
-37.05
-27.48
-16.15
-4.39
6.59
15.87
22.89
27.46
29.70
30.04
29.07
27.41
25.64
24.15
23.14
22.63
22.49
22.49
22.36
21.89
20.96
19.59
17.87
15.92
13.79
11.56
9.25
6.91
4.52
2.03
-0.64
-3.63
-7.00
-10.79
-15.07
-19.91
-25.37
-31.23
-36.93
-41.56
-44.07
-43.61
-39.86
-33.13
-24.20
-14.08
-3.77
5.92
14.37
21.17
26.09
29.08
30.28
30.01
28.67
26.73
24.61
22.66
21.06
19.84
18.84
17.86
16.73
15.40
13.96
12.53
11.17
9.77
8.13
6.07
3.55
0.68
-2.29
-5.12
-7.72
-10.19
-12.79
-15.84
-19.61
-24.17
-29.35
-34.69
-39.44
-42.71
-43.60
-41.40
-35.89
-27.39
-16.81
-5.40
5.48
14.73
21.63
25.97
27.93
27.95
26.62
24.58
22.37
20.42
18.92
17.87
17.11
16.45
15.75
14.96
14.09
13.13
12.03
10.71
9.10
7.21
5.08
2.80
0.39
-2.15
-4.84
-7.67
-10.69
-13.98
-17.73
-22.08
-26.97
-31.96
-36.22
-38.68
-38.38
-34.83
-28.14
-19.04
-8.66
1.79
11.27
19.03
24.71
28.24
29.80
29.71
28.32
26.05
23.29
20.44
17.86
15.79
14.32
13.34
12.63
11.93
11.03
9.82
8.30
6.48
4.37
2.00
-0.59
-3.31
-6.06
-8.72
-11.36
-14.17
-17.46
-21.49
-26.31
-31.54
-36.40
-39.79
-40.66
-38.28
-32.58
-24.13
-14.05
-3.60
6.07
14.18
20.34
24.47
26.72
27.32
26.58
24.87
22.59
20.13
17.81
15.83
14.25
13.00
11.95
10.97
9.95
8.82
7.55
6.07
4.29
2.13
-0.48
-3.51
-6.78
-10.09
-13.25
-16.30
-19.46
-23.14
-27.68
-33.08
-38.85
-44.03
-47.41
-47.87
-44.75
-38.02
-28.33
-16.82
-4.83
6.42
15.99
23.36
28.35
31.05
31.70
30.71
28.62
25.97
23.37
21.23
19.77
18.97
18.63
18.50
18.26
17.63
16.34
14.26
11.40
8.03
4.56
1.41
-1.16
-3.17
-4.90
-6.71
-8.92
-11.85
-15.72
-20.70
-26.74
-33.45
-39.97
-45.07
-47.46
-46.18
-40.95
-32.27
-21.31
-9.53
1.70
11.36
18.97
24.44
27.94
29.74
30.12
29.41
28.00
26.34
24.82
23.61
22.66
21.69
20.48
18.98
17.37
15.95
14.91
14.23
13.58
12.57
10.86
8.29
4.92
0.97
-3.21
-7.24
-10.82
-13.76
-16.18
-18.45
-21.10
-24.65
-29.30
-34.88
-40.74
-45.79
-48.78
-48.61
-44.65
-37.01
-26.58
-14.79
-3.16
7.11
15.33
21.33
25.22
27.21
27.58
26.66
24.95
23.04
21.46
20.47
20.04
19.90
19.69
19.16
18.20
16.85
15.25
13.58
11.96
10.46
9.03
7.51
5.71
3.52
0.93
-2.00
-5.12
-8.33
-11.60
-14.98
-18.58
-22.52
-26.84
-31.40
-35.76
-39.18
-40.71
-39.53
-35.21
-27.97
-18.63
-8.37
1.59
10.31
17.26
22.24
25.31
26.64
26.50
25.23
23.23
20.95
18.83
17.14
16.04
15.46
15.20
15.03
14.74
14.20
13.36
12.19
10.66
8.78
6.56
4.09
1.49
-1.08
-3.58
-6.01
-8.48
-11.22
-14.46
-18.44
-23.21
-28.51
-33.71
-37.83
-39.74
-38.55
-33.92
-26.16
-16.23
-5.38
5.14
14.29
21.42
26.25
28.84
29.46
28.61
26.86
24.77
22.77
21.13
19.94
19.13
18.55
18.00
17.31
16.40
15.28
14.02
12.67
11.18
9.40
7.16
4.40
1.22
-2.14
-5.41
-8.44
-11.26
-14.07
-17.18
-20.85
-25.29
-30.51
-36.28
-42.01
-46.79
-49.55
-49.29
-45.46
-38.15
-28.17
-16.75
-5.21
5.34
14.22
21.10
25.93
28.77
29.80
29.31
27.81
25.89
24.15
22.95
22.38
22.18
21.98
21.46
20.50
19.22
17.86
16.65
15.64
14.71
13.57
11.94
9.68
6.81
3.52
0.08
-3.28
-6.44
-9.45
-12.51
-15.86
-19.74
-24.33
-29.58
-35.22
-40.66
-45.04
-47.39
-46.88
-43.07
-36.09
-26.65
-15.87
-4.94
5.11
13.62
20.28
25.04
28.00
29.36
29.34
28.32
26.64
24.74
22.97
21.59
20.72
20.32
20.24
20.24
20.10
19.71
19.05
18.16
17.12
15.88
14.34
12.41
10.06
7.36
4.48
1.55
-1.36
-4.22
-7.07
-9.94
-12.90
-16.09
-19.67
-23.80
-28.55
-33.73
-38.92
-43.43
-46.40
-46.98
-44.57
-39.02
-30.81
-20.91
-10.55
-0.84
7.50
14.20
19.32
22.97
25.24
26.21
26.04
25.07
23.77
22.52
21.55
20.83
20.19
19.52
18.75
17.97
17.24
16.65
16.16
15.67
14.96
13.84
12.18
9.97
7.35
4.61
2.03
-0.24
-2.17
-3.92
-5.69
-7.67
-10.02
-12.90
-16.42
-20.64
-25.46
-30.56
-35.40
-39.22
-41.26
-40.86
-37.69
-31.83
-23.88
-14.72
-5.40
3.20
10.47
16.19
20.33
23.02
24.40
24.62
23.93
22.67
21.18
19.70
18.36
17.15
16.00
14.92
13.96
13.19
12.60
12.06
11.44
10.61
9.45
7.88
5.87
3.43
0.64
-2.30
-5.14
-7.73
-10.08
-12.41
-15.11
-18.49
-22.67
-27.40
-32.03
-35.66
-37.37
-36.38
-32.36
-25.51
-16.55
-6.56
3.26
11.89
18.58
22.97
25.03
25.05
23.53
21.15
18.62
16.51
15.14
14.48
14.24
13.99
13.34
12.13
10.43
8.51
6.70
5.22
4.04
2.98
1.74
0.08
-2.04
-4.53
-7.23
-10.03
-12.92
-15.95
-19.20
-22.74
-26.66
-31.00
-35.67
-40.28
-44.09
-46.12
-45.53
-41.87
-35.33
-26.62
-16.77
-6.73
2.75
11.14
18.05
23.18
26.36
27.63
27.23
25.62
23.36
20.98
18.95
17.53
16.76
16.43
16.24
15.86
15.13
14.06
12.72
11.12
9.15
6.70
3.77
0.58
-2.49
-5.07
-7.02
-8.47
-9.84
-11.62
-14.28
-18.08
-23.04
-28.86
-34.88
-40.14
-43.54
-44.12
-41.33
-35.20
-26.40
-15.98
-5.19
4.84
13.30
19.81
24.32
27.02
28.20
28.11
27.07
25.39
23.49
21.78
20.52
19.71
19.11
18.35
17.16
15.51
13.64
11.91
10.58
9.73
9.13
8.43
7.18
5.11
2.17
-1.39
-5.15
-8.64
-11.54
-13.86
-15.89
-18.11
-21.01
-24.90
-29.79
-35.30
-40.71
-45.01
-47.11
-46.09
-41.50
-33.55
-23.09
-11.42
0.10
10.33
18.55
24.46
28.12
29.77
29.75
28.50
26.50
24.27
22.25
20.76
19.91
19.60
19.49
19.24
18.61
17.57
16.31
15.12
14.17
13.39
12.49
11.08
8.90
5.95
2.48
-1.12
-4.52
-7.57
-10.28
-12.82
-15.44
-18.44
-22.10
-26.58
-31.79
-37.22
-42.02
-45.10
-45.47
-42.58
-36.45
-27.75
-17.49
-6.84
3.16
11.77
18.50
23.18
25.81
26.62
25.96
24.33
22.22
20.13
18.40
17.21
16.55
16.25
16.03
15.64
14.86
13.66
12.15
10.51
8.92
7.45
6.00
4.45
2.64
0.51
-1.90
-4.49
-7.19
-10.02
-13.13
-16.69
-20.90
-25.69
-30.70
-35.22
-38.31
-39.05
-36.84
-31.60
-23.85
-14.55
-4.85
4.23
11.97
18.01
22.26
24.81
25.82
25.52
24.17
22.12
19.80
17.55
15.68
14.28
13.31
12.61
12.02
11.38
10.63
9.71
8.60
7.25
5.56
3.49
1.06
-1.60
-4.31
-6.92
-9.38
-11.89
-14.76
-18.38
-22.86
-27.94
-32.83
-36.42
-37.57
-35.52
-30.17
-22.04
-12.19
-1.84
7.86
16.05
22.23
26.23
28.17
28.35
27.22
25.27
22.94
20.62
18.54
16.80
15.37
14.16
13.06
11.96
10.78
9.47
7.97
6.21
4.13
1.71
-0.98
-3.85
-6.72
-9.52
-12.22
-14.98
-18.08
-21.87
-26.63
-32.32
-38.47
-44.12
-48.05
-49.07
-46.44
-40.11
-30.71
-19.44
-7.69
3.28
12.60
19.78
24.74
27.66
28.91
28.92
28.12
26.90
25.51
24.11
22.71
21.27
19.74
18.11
16.48
14.96
13.66
12.53
11.42
10.03
8.10
5.49
2.26
-1.38
-5.15
-8.88
-12.54
-16.29
-20.35
-24.88
-29.89
-35.07
-39.81
-43.25
-44.51
-42.88
-38.07
-30.33
-20.43
-9.45
1.46
11.30
19.38
25.34
29.14
30.93
31.04
29.89
27.97
25.74
23.61
21.83
20.53
19.67
19.09
18.57
17.91
16.97
15.66
13.99
12.00
9.73
7.18
4.37
1.32
-1.91
-5.17
-8.38
-11.54
-14.85
-18.67
-23.37
-29.03
-35.22
-40.98
-45.01
-46.14
-43.69
-37.77
-29.15
-18.97
-8.40
1.65
10.59
18.02
23.65
27.31
28.99
28.95
27.74
26.00
24.32
22.99
22.02
21.22
20.37
19.34
18.16
16.92
15.70
14.52
13.33
12.02
10.50
8.70
6.56
4.06
1.20
-1.93
-5.23
-8.58
-11.92
-15.35
-19.08
-23.33
-28.16
-33.32
-38.08
-41.40
-42.20
-39.71
-33.76
-24.93
-14.31
-3.22
7.15
15.93
22.68
27.27
29.77
30.37
29.37
27.25
24.58
22.03
20.14
19.16
19.03
19.37
19.67
19.50
18.59
16.92
14.60
11.87
8.93
6.00
3.25
0.85
-1.17
-2.91
-4.64
-6.79
-9.79
-13.97
-19.37
-25.66
-32.08
-37.56
-40.94
-41.21
-37.89
-31.13
-21.72
-10.85
0.18
10.26
18.60
24.82
28.85
30.85
31.17
30.25
28.61
26.70
24.92
23.45
22.31
21.36
20.38
19.21
17.80
16.23
14.60
12.99
11.36
9.53
7.33
4.64
1.53
-1.83
-5.25
-8.61
-11.92
-15.36
-19.20
-23.70
-29.04
-35.08
-41.23
-46.53
-49.73
-49.76
-46.01
-38.61
-28.37
-16.58
-4.55
6.62
16.20
23.77
29.17
32.39
33.62
33.26
31.86
30.01
28.17
26.58
25.26
24.11
23.02
21.95
20.91
19.92
18.91
17.74
16.26
14.37
12.08
9.47
6.68
3.79
0.82
-2.28
-5.62
-9.30
-13.44
-18.18
-23.58
-29.57
-35.82
-41.66
-46.13
-48.19
-46.98
-42.17
-34.05
-23.55
-11.95
-0.54
9.63
17.95
24.20
28.42
30.82
31.67
31.29
30.06
28.45
26.91
25.78
25.16
24.83
24.41
23.53
22.02
20.05
18.00
16.26
14.95
13.90
12.67
10.87
8.28
4.96
1.21
-2.64
-6.33
-9.74
-12.90
-15.91
-18.99
-22.44
-26.61
-31.69
-37.63
-43.88
-49.46
-53.13
-53.73
-50.55
-43.55
-33.42
-21.39
-8.89
2.74
12.54
20.00
25.00
27.72
28.53
27.89
26.32
24.36
22.48
21.03
20.11
19.58
19.19
18.67
17.87
16.80
15.56
14.29
13.05
11.79
10.34
8.55
6.27
3.50
0.35
-2.98
-6.28
-9.40
-12.40
-15.47
-18.94
-23.05
-27.73
-32.52
-36.57
-38.83
-38.43
-34.94
-28.48
-19.75
-9.74
0.47
9.91
17.90
23.98
27.94
29.78
29.75
28.27
25.91
23.26
20.82
18.90
17.57
16.77
16.29
15.88
15.30
14.39
13.05
11.26
9.02
6.38
3.38
0.13
-3.25
-6.59
-9.79
-12.83
-15.80
-18.93
-22.50
-26.78
-31.85
-37.52
-43.18
-47.88
-50.50
-50.05
-46.02
-38.55
-28.44
-16.92
-5.27
5.40
14.32
21.07
25.48
27.59
27.69
26.28
24.04
21.68
19.79
18.65
18.22
18.23
18.28
18.08
17.48
16.50
15.23
13.71
11.87
9.62
6.89
3.81
0.57
-2.58
-5.51
-8.26
-11.03
-14.10
-17.71
-21.98
-26.90
-32.34
-37.97
-43.23
-47.27
-49.09
-47.77
-42.81
-34.38
-23.34
-10.99
1.24
12.17
21.05
27.52
31.58
33.40
33.32
31.84
29.53
27.00
24.76
23.09
21.98
21.24
20.59
19.84
18.95
17.97
16.97
15.91
14.61
12.84
10.40
7.26
3.62
-0.18
-3.79
-6.99
-9.81
-12.46
-15.31
-18.73
-23.03
-28.29
-34.30
-40.47
-45.81
-49.16
-49.41
-45.93
-38.74
-28.57
-16.65
-4.36
7.06
16.76
24.26
29.43
32.38
33.40
32.91
31.41
29.41
27.30
25.36
23.67
22.18
20.75
19.27
17.67
15.98
14.32
12.79
11.45
10.22
8.86
7.09
4.67
1.52
-2.15
-6.02
-9.69
-12.94
-15.80
-18.54
-21.60
-25.38
-30.08
-35.53
-41.15
-45.97
-48.86
-48.82
-45.27
-38.23
-28.39
-16.87
-4.97
6.11
15.49
22.61
27.27
29.58
29.87
28.67
26.61
24.32
22.30
20.81
19.86
19.27
18.74
18.03
16.97
15.57
13.89
12.05
10.17
8.29
6.44
4.59
2.67
0.59
-1.76
-4.43
-7.47
-10.91
-14.85
-19.40
-24.60
-30.21
-35.50
-39.43
-40.80
-38.76
-33.15
-24.57
-14.21
-3.44
6.57
15.06
21.68
26.40
29.31
30.55
30.32
28.88
26.57
23.82
21.04
18.53
16.45
14.83
13.57
12.57
11.76
10.99
10.07
8.75
6.79
4.09
0.75
-2.92
-6.58
-9.95
-12.95
-15.67
-18.31
-21.15
-24.49
-28.62
-33.66
-39.39
-45.07
-49.50
-51.32
-49.49
-43.64
-34.29
-22.64
-10.20
1.64
11.89
19.97
25.70
29.15
30.54
30.27
28.83
26.77
24.60
22.69
21.24
20.24
19.53
18.85
17.99
16.80
15.25
13.38
11.28
8.97
6.49
3.84
1.05
-1.83
-4.76
-7.73
-10.79
-14.01
-17.52
-21.46
-25.97
-31.12
-36.71
-42.16
-46.51
-48.61
-47.46
-42.63
-34.43
-23.82
-12.14
-0.67
9.62
18.14
24.62
28.99
31.31
31.78
30.78
28.84
26.56
24.46
22.81
21.64
20.73
19.82
18.69
17.30
15.75
14.19
12.74
11.35
9.87
8.09
5.88
3.23
0.26
-2.83
-5.86
-8.71
-11.39
-14.07
-17.03
-20.62
-25.09
-30.47
-36.39
-42.08
-46.41
-48.26
-46.75
-41.60
-33.19
-22.53
-10.92
0.29
10.04
17.68
23.01
26.15
27.42
27.30
26.26
24.80
23.34
22.15
21.35
20.89
20.58
20.18
19.52
18.56
17.36
16.06
14.81
13.67
12.58
11.32
9.67
7.48
4.73
1.62
-1.54
-4.48
-7.09
-9.52
-12.10
-15.25
-19.21
-23.94
-29.02
-33.67
-36.94
-37.86
-35.77
-30.48
-22.39
-12.40
-1.71
8.51
17.31
24.09
28.64
30.97
31.31
30.08
27.77
25.00
22.31
20.07
18.45
17.39
16.70
16.18
15.64
14.97
14.04
12.76
11.07
8.94
6.42
3.61
0.62
-2.43
-5.43
-8.28
-10.95
-13.48
-16.03
-18.92
-22.47
-26.91
-32.17
-37.71
-42.56
-45.54
-45.58
-42.10
-35.23
-25.73
-14.80
-3.69
6.56
15.26
22.09
26.93
29.80
30.84
30.31
28.61
26.27
23.85
21.81
20.40
19.61
19.21
18.87
18.30
17.34
16.03
14.56
13.11
11.77
10.46
8.92
6.90
4.25
1.05
-2.44
-5.89
-9.01
-11.73
-14.23
-16.89
-20.16
-24.43
-29.79
-35.90
-41.94
-46.69
-48.91
-47.63
-42.59
-34.26
-23.72
-12.33
-1.31
8.49
16.59
22.86
27.29
29.89
30.76
30.16
28.54
26.55
24.78
23.62
23.13
23.03
22.92
22.41
21.36
19.84
18.09
16.35
14.82
13.55
12.43
11.23
9.64
7.44
4.53
1.05
-2.72
-6.44
-9.86
-12.94
-15.83
-18.84
-22.29
-26.43
-31.25
-36.44
-41.23
-44.57
-45.33
-42.69
-36.48
-27.32
-16.38
-5.06
5.42
14.27
21.11
25.84
28.52
29.27
28.42
26.45
24.03
21.86
20.43
19.90
20.06
20.46
20.62
20.17
19.00
17.29
15.34
13.49
11.91
10.58
9.26
7.67
5.56
2.89
-0.21
-3.48
-6.69
-9.68
-12.50
-15.32
-18.43
-22.12
-26.60
-31.84
-37.43
-42.60
-46.26
-47.31
-44.97
-39.07
-30.16
-19.34
-7.95
2.77
11.92
19.03
23.93
26.69
27.52
26.72
24.73
22.06
19.26
16.82
15.06
14.06
13.68
13.65
13.66
13.50
13.04
12.26
11.11
9.57
7.56
5.05
2.14
-0.94
-3.86
-6.31
-8.19
-9.67
-11.14
-13.20
-16.29
-20.59
-25.84
-31.36
-36.15
-39.12
-39.32
-36.19
-29.76
-20.65
-10.00
0.79
10.45
18.07
23.26
26.10
26.93
26.22
24.48
22.19
19.79
17.63
15.89
14.58
13.57
12.67
11.74
10.70
9.54
8.24
6.77
5.13
3.30
1.31
-0.85
-3.20
-5.76
-8.51
-11.42
-14.47
-17.74
-21.41
-25.65
-30.45
-35.41
-39.70
-42.29
-42.20
-38.89
-32.44
-23.50
-13.16
-2.59
7.13
15.24
21.29
25.19
27.09
27.36
26.47
24.92
23.14
21.44
19.98
18.77
17.74
16.78
15.78
14.63
13.26
11.64
9.75
7.62
5.32
2.94
0.55
-1.81
-4.17
-6.60
-9.18
-12.03
-15.29
-19.11
-23.63
-28.87
-34.55
-39.99
-44.18
-45.94
-44.37
-39.12
-30.59
-19.83
-8.26
2.79
12.30
19.72
24.89
27.90
28.99
28.51
26.91
24.71
22.42
20.38
18.77
17.52
16.45
15.39
14.27
13.10
11.92
10.72
9.42
7.89
6.04
3.85
1.37
-1.34
-4.26
-7.38
-10.71
-14.31
-18.25
-22.63
-27.52
-32.80
-38.00
-42.31
-44.72
-44.35
-40.79
-34.27
-25.56
-15.77
-5.97
3.02
10.70
16.81
21.31
24.23
25.77
26.23
25.99
25.46
24.89
24.37
23.81
23.07
22.06
20.87
19.65
18.53
17.48
16.29
14.68
12.43
9.56
6.31
3.03
-0.02
-2.74
-5.22
-7.72
-10.54
-13.98
-18.25
-23.41
-29.17
-34.84
-39.37
-41.59
-40.58
-36.00
-28.23
-18.26
-7.38
3.14
12.34
19.58
24.61
27.45
28.37
27.80
26.27
24.25
22.15
20.18
18.41
16.86
15.50
14.29
13.20
12.16
11.04
9.74
8.20
6.41
4.49
2.53
0.62
-1.30
-3.32
-5.55
-8.07
-10.88
-13.97
-17.43
-21.35
-25.73
-30.25
-34.23
-36.65
-36.49
-33.11
-26.57
-17.62
-7.50
2.49
11.25
18.17
23.03
25.93
27.12
26.95
25.78
23.97
21.88
19.79
17.89
16.26
14.89
13.70
12.58
11.46
10.21
8.77
7.09
5.22
3.24
1.29
-0.57
-2.39
-4.37
-6.78
-9.87
-13.74
-18.32
-23.29
-28.16
-32.30
-34.94
-35.35
-32.98
-27.65
-19.68
-9.90
0.50
10.25
18.26
23.89
27.02
27.94
27.20
25.44
23.22
20.97
18.97
17.38
16.23
15.44
14.80
14.06
12.95
11.29
9.07
6.46
3.77
1.24
-0.96
-2.90
-4.77
-6.92
-9.60
-12.97
-17.01
-21.64
-26.69
-31.96
-37.11
-41.52
-44.37
-44.72
-41.90
-35.72
-26.69
-15.84
-4.48
6.14
15.09
21.88
26.39
28.80
29.43
28.74
27.21
25.32
23.47
21.92
20.74
19.87
19.14
18.35
17.40
16.23
14.84
13.22
11.35
9.23
6.88
4.40
1.87
-0.69
-3.33
-6.21
-9.46
-13.24
-17.62
-22.63
-28.18
-33.89
-39.04
-42.63
-43.62
-41.35
-35.75
-27.46
-17.53
-7.15
2.73
11.47
18.69
24.21
27.89
29.73
29.94
28.90
27.21
25.41
23.93
22.95
22.47
22.28
22.11
21.71
20.93
19.77
18.31
16.68
14.97
13.13
11.03
8.56
5.66
2.49
-0.71
-3.70
-6.36
-8.76
-11.21
-14.07
-17.75
-22.45
-28.13
-34.33
-40.21
-44.64
-46.48
-44.96
-39.90
-31.81
-21.70
-10.79
-0.20
9.23
16.94
22.65
26.24
27.80
27.62
26.14
23.94
21.57
19.51
18.04
17.26
17.07
17.19
17.29
17.08
16.47
15.51
14.38
13.19
11.90
10.30
8.16
5.39
2.11
-1.35
-4.61
-7.38
-9.63
-11.53
-13.46
-15.83
-18.99
-23.13
-28.14
-33.66
-39.00
-43.25
-45.50
-44.98
-41.35
-34.76
-25.91
-15.85
-5.72
3.55
11.35
17.45
21.87
24.74
26.22
26.52
25.96
24.91
23.72
22.62
21.66
20.78
19.92
19.08
18.34
17.74
17.23
16.60
15.60
14.01
11.71
8.74
5.28
1.56
-2.13
-5.53
-8.45
-10.88
-13.06
-15.47
-18.63
-22.81
-27.82
-32.86
-36.76
-38.30
-36.64
-31.66
-23.92
-14.47
-4.49
4.99
13.24
19.81
24.44
27.04
27.69
26.73
24.70
22.28
20.05
18.37
17.29
16.54
15.79
14.74
13.34
11.71
10.09
8.66
7.41
6.19
4.73
2.82
0.42
-2.36
-5.26
-8.04
-10.58
-12.91
-15.25
-17.91
-21.20
-25.38
-30.47
-36.10
-41.48
-45.45
-46.80
-44.64
-38.76
-29.74
-18.77
-7.30
3.42
12.54
19.70
24.82
28.01
29.43
29.40
28.31
26.64
24.82
23.14
21.67
20.39
19.20
18.07
16.97
15.92
14.92
13.93
12.87
11.58
9.91
7.71
4.99
1.90
-1.27
-4.24
-6.85
-9.16
-11.36
-13.75
-16.63
-20.28
-24.88
-30.39
-36.37
-41.89
-45.68
-46.45
-43.41
-36.55
-26.71
-15.30
-3.81
6.52
14.95
21.18
25.28
27.49
28.15
27.67
26.45
24.83
23.17
21.70
20.57
19.74
19.04
18.23
17.12
15.72
14.18
12.74
11.54
10.52
9.44
7.98
5.94
3.27
0.13
-3.20
-6.48
-9.55
-12.40
-15.17
-18.13
-21.61
-25.85
-30.91
-36.44
-41.78
-45.90
-47.75
-46.47
-41.71
-33.73
-23.41
-12.00
-0.79
9.13
17.08
22.75
26.14
27.45
27.04
25.40
23.07
20.68
18.70
17.39
16.73
16.46
16.25
15.81
15.00
13.84
12.47
11.05
9.70
8.45
7.16
5.65
3.77
1.47
-1.11
-3.74
-6.21
-8.48
-10.70
-13.18
-16.28
-20.23
-25.01
-30.31
-35.41
-39.30
-40.91
-39.39
-34.50
-26.73
-17.15
-7.04
2.50
10.84
17.70
23.02
26.70
28.63
28.74
27.23
24.55
21.38
18.37
15.98
14.35
13.37
12.80
12.38
11.93
11.39
10.73
9.89
8.70
6.91
4.38
1.14
-2.52
-6.12
-9.21
-11.60
-13.41
-15.02
-16.99
-19.83
-23.85
-28.96
-34.56
-39.53
-42.48
-42.17
-37.94
-30.03
-19.50
-7.96
3.05
12.36
19.35
23.88
26.13
26.45
25.35
23.40
21.17
19.11
17.46
16.26
15.39
14.66
13.88
12.85
11.46
9.71
7.71
5.68
3.79
2.13
0.56
-1.15
-3.22
-5.67
-8.37
-11.14
-13.95
-16.94
-20.46
-24.78
-29.92
-35.49
-40.71
-44.51
-45.88
-44.10
-39.03
-31.11
-21.28
-10.62
-0.18
9.30
17.30
23.55
27.87
30.26
30.88
30.12
28.45
26.35
24.15
22.01
20.01
18.21
16.68
15.48
14.60
13.94
13.33
12.61
11.65
10.31
8.48
6.06
3.05
-0.44
-4.13
-7.75
-11.09
-14.16
-17.18
-20.53
-24.59
-29.58
-35.35
-41.32
-46.45
-49.50
-49.33
-45.32
-37.59
-26.99
-14.86
-2.59
8.68
18.25
25.77
31.18
34.51
35.90
35.64
34.19
32.14
30.08
28.41
27.24
26.36
25.42
24.11
22.35
20.30
18.30
16.63
15.36
14.33
13.18
11.53
9.16
6.10
2.55
-1.18
-4.84
-8.31
-11.62
-14.94
-18.54
-22.71
-27.67
-33.43
-39.61
-45.46
-49.87
-51.67
-49.97
-44.48
-35.60
-24.33
-11.98
0.18
11.16
20.34
27.40
32.19
34.70
35.06
33.66
31.10
28.19
25.64
23.94
23.16
23.01
23.02
22.76
22.00
20.72
19.07
17.20
15.21
13.09
10.76
8.17
5.31
2.26
-0.85
-3.91
-6.90
-9.86
-12.95
-16.39
-20.42
-25.23
-30.84
-36.97
-42.93
-47.66
-49.95
-48.80
-43.75
-35.11
-23.89
-11.53
0.54
11.23
19.90
26.32
30.51
32.59
32.77
31.42
29.03
26.26
23.73
21.87
20.78
20.27
20.00
19.62
18.94
17.91
16.60
15.05
13.25
11.16
8.72
5.96
2.99
-0.04
-2.99
-5.78
-8.45
-11.19
-14.24
-17.87
-22.26
-27.33
-32.63
-37.38
-40.52
-41.02
-38.19
-31.95
-22.92
-12.23
-1.26
8.80
17.18
23.54
27.86
30.28
31.03
30.34
28.57
26.15
23.51
21.03
18.87
17.06
15.53
14.18
13.00
11.98
11.09
10.20
9.06
7.38
4.98
1.94
-1.46
-4.82
-7.85
-10.52
-13.09
-16.01
-19.69
-24.32
-29.75
-35.43
-40.49
-43.89
-44.60
-41.93
-35.75
-26.56
-15.42
-3.68
7.42
16.93
24.28
29.29
31.96
32.56
31.47
29.23
26.45
23.66
21.19
19.20
17.65
16.44
15.47
14.63
13.80
12.85
11.61
9.95
7.80
5.16
2.12
-1.13
-4.44
-7.63
-10.64
-13.49
-16.33
-19.44
-23.13
-27.72
-33.27
-39.47
-45.52
-50.20
-52.18
-50.40
-44.49
-34.90
-22.78
-9.62
3.13
14.34
23.36
29.88
33.87
35.50
35.09
33.18
30.44
27.55
25.03
23.16
21.88
20.95
20.11
19.19
18.13
16.98
15.74
14.32
12.58
10.35
7.55
4.25
0.63
-3.05
-6.57
-9.87
-12.99
-16.14
-19.64
-23.81
-28.85
-34.69
-40.79
-46.19
-49.58
-49.76
-45.97
-38.29
-27.60
-15.29
-2.84
8.56
18.20
25.74
31.08
34.19
35.19
34.42
32.47
30.05
27.82
26.09
24.81
23.67
22.38
20.80
19.06
17.39
15.94
14.68
13.38
11.74
9.55
6.79
3.61
0.24
-3.08
-6.24
-9.22
-12.10
-15.08
-18.44
-22.53
-27.57
-33.49
-39.71
-45.16
-48.44
-48.29
-44.05
-35.90
-24.89
-12.56
-0.44
10.27
18.92
25.27
29.36
31.34
31.51
30.27
28.18
25.85
23.76
22.18
21.05
20.14
19.17
17.95
16.48
14.90
13.41
12.13
11.00
9.83
8.32
6.22
3.44
0.11
-3.49
-7.03
-10.28
-13.22
-16.06
-19.15
-22.87
-27.43
-32.73
-38.28
-43.16
-46.26
-46.53
-43.29
-36.51
-26.83
-15.42
-3.67
7.15
16.17
22.98
27.54
30.05
30.77
29.97
27.97
25.18
22.12
19.32
17.21
15.96
15.42
15.22
14.94
14.27
13.09
11.46
9.51
7.37
5.09
2.69
0.25
-2.17
-4.50
-6.76
-9.11
-11.84
-15.25
-19.53
-24.53
-29.72
-34.21
-36.92
-36.88
-33.59
-27.16
-18.35
-8.36
1.53
10.24
17.05
21.72
24.33
25.17
24.66
23.22
21.26
19.12
17.05
15.22
13.75
12.65
11.85
11.20
10.45
9.38
7.86
5.91
3.69
1.43
-0.74
-2.84
-5.01
-7.45
-10.35
-13.86
-18.02
-22.82
-28.02
-33.15
-37.45
-39.97
-39.81
-36.40
-29.75
-20.48
-9.72
1.21
11.09
19.05
24.70
28.04
29.35
29.01
27.45
25.05
22.19
19.22
16.45
14.12
12.36
11.13
10.30
9.63
8.82
7.64
5.93
3.65
0.97
-1.93
-4.82
-7.59
-10.23
-12.87
-15.73
-19.06
-23.09
-27.86
-33.17
-38.41
-42.67
-44.90
-44.15
-39.92
-32.38
-22.29
-10.86
0.59
10.90
19.29
25.38
29.16
30.86
30.86
29.57
27.45
24.90
22.27
19.82
17.69
15.92
14.46
13.21
12.05
10.85
9.50
7.87
5.87
3.50
0.84
-1.94
-4.68
-7.29
-9.85
-12.57
-15.80
-19.83
-24.79
-30.49
-36.36
-41.47
-44.67
-44.89
-41.49
-34.42
-24.40
-12.64
-0.62
10.30
19.15
25.45
29.18
30.68
30.48
29.25
27.59
25.96
24.59
23.53
22.65
21.81
20.89
19.82
18.61
17.29
15.88
14.40
12.86
11.21
9.37
7.19
4.56
1.46
-1.98
-5.53
-8.98
-12.26
-15.54
-19.15
-23.44
-28.53
-34.13
-39.45
-43.33
-44.59
-42.43
-36.72
-28.07
-17.60
-6.62
3.77
12.84
20.22
25.76
29.39
31.11
31.07
29.64
27.39
24.97
22.88
21.35
20.31
19.55
18.83
18.00
17.04
16.01
14.94
13.81
12.48
10.78
8.59
5.91
2.86
-0.32
-3.39
-6.22
-8.83
-11.38
-14.11
-17.34
-21.31
-26.15
-31.70
-37.45
-42.47
-45.62
-45.78
-42.33
-35.33
-25.61
-14.47
-3.36
6.58
14.62
20.50
24.24
26.06
26.27
25.31
23.67
21.88
20.34
19.23
18.51
17.94
17.31
16.48
15.50
14.52
13.67
12.98
12.31
11.43
10.12
8.20
5.69
2.69
-0.60
-3.94
-7.13
-10.04
-12.66
-15.18
-17.97
-21.41
-25.64
-30.35
-34.69
-37.46
-37.51
-34.17
-27.53
-18.35
-7.87
2.60
12.01
19.63
25.08
28.28
29.31
28.47
26.24
23.20
19.97
17.12
15.05
13.90
13.55
13.65
13.80
13.66
13.06
12.05
10.72
9.17
7.36
5.22
2.72
-0.06
-2.94
-5.73
-8.34
-10.85
-13.50
-16.61
-20.42
-24.98
-30.02
-34.87
-38.53
-39.92
-38.21
-33.12
-25.13
-15.28
-4.90
4.83
13.12
19.62
24.30
27.24
28.54
28.35
26.98
24.85
22.49
20.36
18.67
17.45
16.51
15.67
14.79
13.86
12.91
11.98
11.07
10.10
8.93
7.38
5.31
2.64
-0.56
-4.07
-7.63
-10.97
-13.99
-16.76
-19.54
-22.71
-26.60
-31.37
-36.85
-42.45
-47.20
-49.93
-49.56
-45.49
-37.82
-27.37
-15.48
-3.60
7.06
15.80
22.37
26.86
29.50
30.59
30.40
29.28
27.61
25.82
24.28
23.27
22.83
22.81
22.86
22.61
21.76
20.25
18.23
16.04
14.04
12.46
11.27
10.24
9.01
7.27
4.88
1.88
-1.53
-5.13
-8.68
-12.06
-15.20
-18.10
-20.88
-23.79
-27.18
-31.38
-36.52
-42.25
-47.76
-51.80
-53.06
-50.58
-44.10
-34.22
-22.19
-9.56
2.21
12.14
19.77
25.07
28.28
29.74
29.76
28.73
27.09
25.29
23.76
22.76
22.31
22.19
22.08
21.64
20.70
19.30
17.67
16.10
14.86
14.00
13.35
12.54
11.17
8.98
5.95
2.32
-1.53
-5.21
-8.47
-11.21
-13.56
-15.73
-18.03
-20.74
-24.13
-28.32
-33.26
-38.54
-43.44
-46.92
-47.94
-45.70
-39.98
-31.23
-20.48
-9.06
1.81
11.23
18.72
24.11
27.42
28.76
28.35
26.59
24.07
21.46
19.33
17.96
17.31
17.03
16.68
15.93
14.65
12.98
11.21
9.66
8.51
7.72
7.04
6.09
4.51
2.15
-0.86
-4.19
-7.40
-10.15
-12.40
-14.36
-16.46
-19.13
-22.67
-27.08
-31.99
-36.67
-40.19
-41.60
-40.16
-35.61
-28.21
-18.73
-8.24
2.13
11.35
18.75
23.90
26.75
27.46
26.45
24.24
21.49
18.77
16.53
14.97
14.06
13.58
13.23
12.78
12.09
11.14
9.97
8.62
7.09
5.35
3.41
1.33
-0.76
-2.79
-4.75
-6.73
-8.95
-11.61
-14.96
-19.15
-24.11
-29.46
-34.45
-38.02
-39.11
-36.96
-31.46
-23.18
-13.25
-3.01
6.38
14.16
19.98
23.82
25.84
26.29
25.45
23.64
21.27
18.70
16.25
14.11
12.33
10.85
9.58
8.44
7.40
6.41
5.36
4.10
2.45
0.30
-2.32
-5.30
-8.44
-11.57
-14.58
-17.48
-20.36
-23.42
-26.96
-31.21
-36.15
-41.33
-45.81
-48.31
-47.64
-43.15
-35.03
-24.31
-12.55
-1.30
8.26
15.56
20.54
23.48
24.72
24.60
23.41
21.47
19.15
16.88
14.98
13.67
12.89
12.44
11.99
11.24
10.05
8.46
6.63
4.72
2.81
0.82
-1.41
-4.00
-6.94
-10.14
-13.49
-17.00
-20.89
-25.42
-30.74
-36.57
-42.10
-46.14
-47.41
-45.06
-38.90
-29.56
-18.27
-6.46
4.62
14.15
21.77
27.43
31.19
33.12
33.32
32.06
29.81
27.16
24.69
22.76
21.47
20.67
20.07
19.38
18.39
16.96
15.04
12.67
9.96
7.04
4.08
1.19
-1.65
-4.54
-7.68
-11.30
-15.65
-20.83
-26.72
-32.84
-38.35
-42.19
-43.34
-41.12
-35.44
-26.79
-16.17
-4.76
6.30
16.15
24.19
30.12
33.85
35.45
35.18
33.46
30.80
27.80
24.97
22.71
21.16
20.26
19.77
19.35
18.66
17.42
15.51
12.94
9.85
6.50
3.12
-0.11
-3.15
-6.10
-9.21
-12.79
-17.12
-22.25
-27.81
-33.02
-36.77
-37.97
-35.86
-30.31
-21.88
-11.59
-0.68
9.74
18.81
25.95
30.89
33.58
34.18
33.05
30.75
27.89
25.03
22.56
20.67
19.36
18.46
17.72
16.88
15.68
14.00
11.85
9.37
6.75
4.21
1.82
-0.48
-2.84
-5.46
-8.53
-12.17
-16.46
-21.44
-26.97
-32.66
-37.83
-41.48
-42.60
-40.41
-34.70
-25.92
-15.11
-3.64
7.16
16.28
23.18
27.72
30.09
30.65
29.80
28.01
25.71
23.34
21.22
19.56
18.36
17.52
16.84
16.13
15.22
14.05
12.60
10.91
8.99
6.78
4.18
1.13
-2.32
-5.97
-9.53
-12.82
-15.90
-19.12
-22.89
-27.39
-32.25
-36.52
-38.92
-38.24
-33.91
-26.19
-16.08
-5.01
5.61
14.74
21.86
26.93
30.15
31.73
31.83
30.59
28.20
25.06
21.72
18.72
16.44
14.97
14.11
13.53
12.92
12.04
10.76
9.02
6.81
4.17
1.19
-1.96
-5.15
-8.34
-11.59
-15.03
-18.83
-23.14
-27.98
-33.17
-38.17
-42.10
-43.86
-42.45
-37.36
-28.83
-17.83
-5.80
5.80
15.82
23.59
28.87
31.69
32.27
30.97
28.34
25.07
21.80
19.04
17.03
15.74
14.94
14.32
13.61
12.63
11.29
9.54
7.38
4.83
1.96
-1.11
-4.24
-7.29
-10.25
-13.20
-16.41
-20.16
-24.73
-30.17
-36.19
-42.12
-46.96
-49.58
-49.05
-44.90
-37.27
-26.93
-15.07
-2.95
8.27
17.76
25.02
29.87
32.45
33.14
32.47
31.00
29.22
27.40
25.65
23.98
22.38
20.88
19.51
18.25
17.02
15.73
14.28
12.61
10.68
8.43
5.81
2.75
-0.72
-4.44
-8.19
-11.78
-15.19
-18.60
-22.37
-26.86
-32.17
-38.00
-43.56
-47.68
-49.16
-47.07
-41.12
-31.75
-20.05
-7.47
4.57
14.99
23.16
28.88
32.24
33.52
33.09
31.45
29.18
26.91
25.10
23.98
23.49
23.30
23.04
22.35
21.12
19.43
17.49
15.57
13.79
12.13
10.35
8.17
5.39
2.05
-1.62
-5.25
-8.61
-11.68
-14.70
-18.07
-22.18
-27.26
-33.28
-39.87
-46.27
-51.44
-54.25
-53.73
-49.42
-41.53
-30.88
-18.71
-6.30
5.23
15.05
22.65
27.78
30.46
31.00
29.91
27.89
25.60
23.58
22.09
21.19
20.71
20.42
20.10
19.63
18.98
18.12
17.10
15.88
14.40
12.58
10.33
7.66
4.60
1.32
-2.05
-5.32
-8.41
-11.35
-14.25
-17.36
-20.93
-25.17
-30.13
-35.61
-41.09
-45.71
-48.47
-48.42
-44.95
-38.08
-28.40
-17.00
-5.19
5.85
15.24
22.46
27.30
29.81
30.25
29.09
26.93
24.41
22.06
20.20
18.89
18.00
17.35
16.81
16.29
15.77
15.18
14.35
13.12
11.33
8.97
6.12
2.98
-0.24
-3.39
-6.42
-9.37
-12.40
-15.72
-19.54
-23.99
-28.94
-33.90
-38.06
-40.39
-39.92
-36.06
-28.87
-19.03
-7.74
3.67
13.97
22.32
28.30
31.82
33.07
32.38
30.26
27.27
24.04
21.14
18.95
17.54
16.68
15.91
14.84
13.29
11.34
9.26
7.31
5.53
3.78
1.77
-0.73
-3.78
-7.26
-10.97
-14.72
-18.44
-22.17
-26.06
-30.34
-35.18
-40.57
-46.15
-51.11
-54.27
-54.49
-50.98
-43.66
-33.13
-20.57
-7.34
5.31
16.38
25.18
31.33
34.74
35.66
34.68
32.56
30.10
27.92
26.27
25.13
24.25
23.35
22.22
20.84
19.27
17.68
16.17
14.75
13.31
11.59
9.33
6.34
2.63
-1.59
-5.97
-10.11
-13.76
-16.96
-19.99
-23.37
-27.64
-33.11
-39.66
-46.52
-52.40
-55.80
-55.40
-50.54
-41.44
-29.18
-15.30
-1.45
11.07
21.41
29.16
34.27
36.86
37.25
35.96
33.65
31.07
28.89
27.47
26.83
26.66
26.50
25.95
24.85
23.34
21.69
20.20
18.95
17.77
16.32
14.22
11.25
7.45
3.08
-1.45
-5.76
-9.59
-12.91
-15.90
-18.88
-22.29
-26.50
-31.71
-37.76
-44.09
-49.72
-53.50
-54.29
-51.33
-44.47
-34.22
-21.64
-8.09
5.05
16.65
25.91
32.43
36.18
37.41
36.64
34.56
31.92
29.36
27.35
26.05
25.33
24.84
24.14
22.95
21.21
19.08
16.90
15.00
13.51
12.31
11.07
9.39
6.98
3.76
-0.11
-4.29
-8.39
-12.12
-15.38
-18.29
-21.22
-24.64
-28.97
-34.36
-40.48
-46.53
-51.32
-53.62
-52.45
-47.48
-39.05
-28.09
-15.87
-3.69
7.37
16.55
23.41
27.80
29.80
29.75
28.19
25.81
23.32
21.24
19.82
19.03
18.64
18.35
17.92
17.17
16.04
14.58
12.89
11.07
9.26
7.50
5.73
3.81
1.57
-1.13
-4.27
-7.75
-11.43
-15.30
-19.46
-24.12
-29.35
-34.91
-40.09
-43.83
-44.97
-42.65
-36.67
-27.60
-16.61
-5.11
5.59
14.61
21.51
26.25
29.03
30.10
29.73
28.23
25.93
23.22
20.50
18.11
16.26
14.99
14.16
13.50
12.71
11.54
9.88
7.74
5.21
2.43
-0.53
-3.61
-6.77
-9.93
-13.01
-16.01
-19.14
-22.73
-27.14
-32.46
-38.24
-43.46
-46.76
-46.86
-43.07
-35.49
-25.03
-13.05
-0.98
10.00
19.14
26.07
30.73
33.21
33.75
32.65
30.36
27.37
24.19
21.31
19.01
17.37
16.24
15.34
14.32
12.91
10.96
8.51
5.69
2.70
-0.31
-3.26
-6.18
-9.12
-12.15
-15.36
-18.92
-23.09
-28.19
-34.37
-41.31
-48.12
-53.37
-55.52
-53.45
-46.91
-36.63
-24.00
-10.66
1.94
12.82
21.47
27.73
31.69
33.58
33.79
32.82
31.18
29.34
27.60
26.10
24.72
23.27
21.54
19.47
17.15
14.80
12.60
10.58
8.59
6.39
3.81
0.87
-2.36
-5.77
-9.36
-13.21
-17.52
-22.40
-27.91
-33.95
-40.21
-46.13
-50.85
-53.29
-52.48
-47.84
-39.46
-28.16
-15.25
-2.18
9.82
19.94
27.76
33.17
36.26
37.29
36.64
34.86
32.54
30.20
28.24
26.81
25.85
25.13
24.43
23.52
22.32
20.82
19.07
17.10
14.90
12.40
9.53
6.21
2.49
-1.49
-5.53
-9.40
-12.98
-16.37
-19.94
-24.18
-29.50
-35.93
-42.92
-49.29
-53.57
-54.44
-51.16
-43.83
-33.33
-20.98
-8.13
4.10
14.98
24.04
30.96
35.57
37.88
38.14
36.89
34.84
32.69
30.93
29.77
29.11
28.70
28.23
27.46
26.29
24.74
22.95
21.08
19.21
17.30
15.17
12.52
9.11
4.88
0.07
-4.88
-9.48
-13.40
-16.66
-19.54
-22.53
-26.09
-30.60
-36.10
-42.29
-48.40
-53.26
-55.54
-54.08
-48.36
-38.71
-26.25
-12.59
0.67
12.27
21.43
27.78
31.35
32.43
31.59
29.59
27.29
25.34
24.08
23.49
23.31
23.17
22.75
21.86
20.49
18.79
16.99
15.32
13.88
12.53
11.04
9.12
6.64
3.70
0.46
-2.94
-6.47
-10.22
-14.34
-18.90
-23.92
-29.21
-34.46
-39.07
-42.26
-43.12
-40.93
-35.39
-26.85
-16.18
-4.60
6.71
16.78
24.94
30.84
34.37
35.65
35.09
33.26
30.80
28.30
26.10
24.35
23.01
21.93
20.97
20.01
18.94
17.65
16.04
14.03
11.57
8.69
5.44
1.94
-1.70
-5.33
-8.86
-12.25
-15.52
-18.84
-22.50
-26.79
-31.94
-37.93
-44.33
-50.28
-54.59
-56.04
-53.73
-47.41
-37.59
-25.38
-12.22
0.54
11.90
21.24
28.29
32.97
35.37
35.70
34.46
32.29
29.95
28.09
27.04
26.73
26.80
26.71
26.03
24.60
22.55
20.26
18.13
16.38
14.94
13.44
11.42
8.52
4.67
0.11
-4.72
-9.36
-13.50
-17.07
-20.20
-23.22
-26.50
-30.46
-35.43
-41.48
-48.22
-54.71
-59.55
-61.29
-58.84
-51.94
-41.23
-28.05
-14.06
-0.71
11.04
20.68
28.06
33.20
36.20
37.25
36.74
35.23
33.39
31.76
30.66
30.10
29.84
29.55
28.95
27.92
26.57
25.08
23.66
22.42
21.30
20.09
18.54
16.38
13.50
9.89
5.70
1.18
-3.38
-7.68
-11.54
-14.90
-17.89
-20.76
-23.90
-27.71
-32.51
-38.38
-45.01
-51.61
-56.99
-59.79
-58.90
-53.80
-44.82
-32.98
-19.74
-6.51
5.56
15.78
23.81
29.53
33.00
34.46
34.36
33.31
31.91
30.65
29.73
29.12
28.62
28.07
27.40
26.64
25.89
25.19
24.54
23.83
22.92
21.63
19.85
17.53
14.76
11.70
8.58
5.59
2.75
-0.06
-3.03
-6.33
-9.98
-13.82
-17.64
-21.25
-24.62
-27.89
-31.34
-35.30
-39.99
-45.35
-50.98
-56.09
-59.58
-60.34
-57.56
-51.04
-41.26
-29.30
-16.51
-4.20
6.67
15.51
22.12
26.56
29.00
29.77
29.26
27.94
26.34
24.88
23.83
23.24
22.98
22.82
22.58
22.13
21.49
20.73
19.93
19.08
18.09
16.79
15.02
12.68
9.83
6.63
3.37
0.27
-2.50
-4.99
-7.35
-9.88
-12.85
-16.52
-21.02
-26.33
-32.14
-37.82
-42.42
-44.86
-44.21
-40.02
-32.48
-22.41
-11.03
0.37
10.69
19.21
25.56
29.68
31.68
31.83
30.52
28.28
25.71
23.38
21.69
20.77
20.44
20.35
20.07
19.33
18.08
16.48
14.83
13.33
11.97
10.55
8.76
6.35
3.27
-0.27
-3.94
-7.43
-10.59
-13.47
-16.32
-19.42
-23.07
-27.44
-32.57
-38.31
-44.22
-49.53
-53.18
-54.09
-51.45
-45.07
-35.49
-23.89
-11.66
-0.03
10.17
18.55
24.97
29.39
31.80
32.32
31.28
29.30
27.07
25.20
23.96
23.25
22.74
22.04
20.93
19.38
17.58
15.85
14.47
13.60
13.13
12.70
11.77
9.84
6.66
2.36
-2.57
-7.50
-11.85
-15.39
-18.18
-20.64
-23.30
-26.69
-31.14
-36.65
-42.77
-48.64
-53.07
-54.86
-53.12
-47.53
-38.42
-26.72
-13.74
-0.90
10.54
19.70
26.14
29.87
31.28
30.96
29.58
27.73
25.87
24.36
23.32
22.74
22.44
22.10
21.42
20.22
18.51
16.54
14.64
13.04
11.80
10.73
9.49
7.73
5.28
2.15
-1.45
-5.24
-8.97
-12.49
-15.79
-18.97
-22.22
-25.80
-29.96
-34.82
-40.19
-45.44
-49.58
-51.49
-50.24
-45.47
-37.51
-27.27
-15.90
-4.52
6.01
15.09
22.35
27.55
30.57
31.45
30.49
28.23
25.37
22.63
20.54
19.34
18.86
18.73
18.46
17.73
16.50
14.99
13.45
12.06
10.77
9.35
7.58
5.31
2.59
-0.43
-3.58
-6.70
-9.77
-12.79
-15.87
-19.19
-22.98
-27.46
-32.72
-38.51
-44.22
-48.90
-51.47
-51.01
-47.08
-39.81
-29.94
-18.63
-7.14
3.50
12.55
19.70
24.88
28.16
29.66
29.57
28.22
26.07
23.68
21.53
19.92
18.87
18.22
17.73
17.20
16.54
15.72
14.66
13.26
11.40
9.03
6.27
3.34
0.45
-2.21
-4.64
-6.95
-9.38
-12.18
-15.60
-19.85
-24.97
-30.75
-36.58
-41.48
-44.27
-43.87
-39.72
-31.98
-21.54
-9.74
1.97
12.41
20.85
26.98
30.82
32.53
32.44
30.94
28.56
25.87
23.35
21.31
19.82
18.68
17.61
16.33
14.74
12.94
11.14
9.58
8.34
7.24
5.95
4.12
1.57
-1.57
-5.00
-8.40
-11.62
-14.80
-18.24
-22.22
-26.92
-32.28
-37.96
-43.38
-47.69
-49.92
-49.18
-44.93
-37.21
-26.70
-14.55
-2.03
9.69
19.82
27.91
33.76
37.36
38.85
38.57
37.03
34.82
32.50
30.46
28.82
27.49
26.26
24.93
23.40
21.73
20.00
18.27
16.46
14.37
11.82
8.70
5.10
1.28
-2.49
-6.01
-9.27
-12.44
-15.79
-19.66
-24.32
-29.91
-36.29
-42.91
-48.80
-52.70
-53.44
-50.26
-43.12
-32.78
-20.48
-7.67
4.43
14.97
23.48
29.76
33.79
35.68
35.74
34.46
32.51
30.48
28.85
27.76
27.06
26.45
25.58
24.25
22.50
20.57
18.75
17.24
16.00
14.73
13.02
10.53
7.18
3.16
-1.14
-5.29
-9.04
-12.35
-15.42
-18.61
-22.34
-26.98
-32.64
-39.08
-45.58
-50.98
-53.95
-53.42
-48.84
-40.47
-29.30
-16.69
-4.07
7.43
17.08
24.53
29.69
32.65
33.63
33.00
31.30
29.15
27.12
25.56
24.54
23.89
23.28
22.42
21.18
19.61
17.88
16.18
14.57
12.99
11.23
9.09
6.47
3.41
0.07
-3.37
-6.77
-10.12
-13.49
-16.99
-20.73
-24.84
-29.44
-34.60
-40.10
-45.33
-49.27
-50.72
-48.73
-42.93
-33.77
-22.38
-10.14
1.62
12.00
20.45
26.77
30.87
32.82
32.84
31.34
28.93
26.26
23.90
22.18
21.17
20.68
20.42
20.07
19.40
18.33
16.86
15.01
12.78
10.20
7.30
4.17
0.99
-2.08
-4.97
-7.70
-10.47
-13.55
-17.26
-21.84
-27.22
-32.92
-38.05
-41.36
-41.70
-38.34
-31.33
-21.50
-10.20
1.05
11.05
19.06
24.77
28.24
29.68
29.49
28.18
26.26
24.19
22.28
20.58
19.02
17.50
15.97
14.45
12.97
11.52
10.05
8.46
6.69
4.70
2.43
-0.15
-3.08
-6.33
-9.79
-13.29
-16.70
-20.04
-23.55
-27.57
-32.37
-37.86
-43.41
-47.95
-50.19
-49.02
-43.94
-35.29
-24.10
-11.83
0.12
10.71
19.38
25.96
30.47
32.96
33.53
32.49
30.30
27.66
25.19
23.32
22.13
21.38
20.72
19.82
18.57
17.01
15.29
13.47
11.51
9.26
6.57
3.39
-0.14
-3.72
-7.04
-9.91
-12.40
-14.82
-17.66
-21.38
-26.28
-32.36
-39.22
-46.04
-51.61
-54.61
-53.91
-49.01
-40.17
-28.48
-15.47
-2.71
8.57
17.68
24.43
28.90
31.35
32.09
31.51
30.05
28.24
26.53
25.21
24.30
23.60
22.80
21.63
20.02
18.15
16.32
14.80
13.57
12.40
10.85
8.57
5.42
1.59
-2.51
-6.48
-10.04
-13.20
-16.21
-19.50
-23.48
-28.37
-33.96
-39.59
-44.15
-46.35
-45.16
-40.16
-31.68
-20.76
-8.73
3.06
13.58
22.14
28.40
32.24
33.81
33.45
31.74
29.38
27.01
25.11
23.86
23.13
22.59
21.87
20.73
19.11
17.17
15.19
13.41
11.91
10.54
9.06
7.23
4.89
2.04
-1.19
-4.68
-8.29
-11.98
-15.77
-19.76
-24.09
-28.88
-34.11
-39.47
-44.29
-47.67
-48.65
-46.50
-41.01
-32.59
-22.19
-11.06
-0.41
8.83
16.23
21.74
25.51
27.73
28.51
28.00
26.43
24.21
21.88
19.88
18.45
17.53
16.92
16.34
15.63
14.77
13.77
12.64
11.32
9.72
7.75
5.39
2.69
-0.23
-3.19
-5.99
-8.54
-10.96
-13.59
-16.89
-21.23
-26.62
-32.53
-37.96
-41.68
-42.53
-39.84
-33.53
-24.25
-13.16
-1.66
8.89
17.48
23.58
27.15
28.51
28.16
26.68
24.62
22.42
20.46
18.92
17.85
17.14
16.54
15.85
14.89
13.59
11.95
9.97
7.72
5.26
2.69
0.11
-2.45
-4.98
-7.55
-10.25
-13.20
-16.54
-20.43
-25.01
-30.19
-35.57
-40.35
-43.48
-43.93
-41.06
-34.83
-25.85
-15.18
-4.06
6.37
15.28
22.19
26.96
29.64
30.51
29.91
28.31
26.15
23.86
21.74
19.92
18.44
17.19
16.09
15.07
14.10
13.09
11.93
10.44
8.43
5.81
2.60
-1.02
-4.79
-8.45
-11.82
-14.90
-17.90
-21.17
-25.14
-30.13
-36.08
-42.43
-48.16
-51.92
-52.46
-49.02
-41.57
-30.86
-18.22
-5.21
6.79
16.78
24.26
29.16
31.71
32.35
31.58
29.93
27.98
26.18
24.83
23.96
23.36
22.69
21.68
20.24
18.52
16.79
15.20
13.71
12.13
10.15
7.62
4.52
1.07
-2.49
-5.96
-9.22
-12.37
-15.62
-19.32
-23.82
-29.34
-35.72
-42.36
-48.19
-51.96
-52.55
-49.34
-42.40
-32.47
-20.69
-8.30
3.56
14.08
22.68
29.02
32.99
34.64
34.35
32.67
30.31
27.90
25.89
24.45
23.51
22.88
22.34
21.75
21.02
20.09
18.92
17.41
15.46
12.99
9.97
6.45
2.64
-1.20
-4.79
-7.98
-10.78
-13.45
-16.42
-20.12
-24.88
-30.72
-37.24
-43.60
-48.62
-51.06
-49.91
-44.76
-35.96
-24.54
-11.94
0.39
11.32
20.18
26.71
30.97
33.08
33.30
31.97
29.59
26.82
24.27
22.40
21.29
20.72
20.25
19.49
18.26
16.64
14.91
13.35
12.05
10.86
9.47
7.51
4.81
1.43
-2.32
-6.06
-9.49
-12.52
-15.34
-18.34
-21.95
-26.50
-31.95
-37.82
-43.17
-46.83
-47.64
-44.87
-38.41
-28.86
-17.37
-5.35
5.85
15.23
22.21
26.70
28.91
29.28
28.32
26.54
24.37
22.15
20.16
18.53
17.33
16.52
15.94
15.41
14.77
13.91
12.78
11.35
9.61
7.52
5.11
2.48
-0.21
-2.82
-5.28
-7.70
-10.34
-13.54
-17.56
-22.51
-28.13
-33.78
-38.50
-41.19
-40.90
-37.09
-29.87
-20.00
-8.73
2.54
12.55
20.44
25.88
28.97
30.16
29.98
28.95
27.43
25.66
23.79
21.95
20.24
18.75
17.47
16.31
15.15
13.94
12.65
11.24
9.62
7.60
4.96
1.66
-2.12
-6.02
-9.71
-13.06
-16.26
-19.71
-23.86
-28.94
-34.81
-40.90
-46.29
-49.85
-50.52
-47.58
-40.91
-31.12
-19.35
-7.01
4.63
14.69
22.63
28.29
31.64
32.78
32.00
29.81
26.91
24.02
21.71
20.24
19.53
19.29
19.11
18.68
17.78
16.32
14.36
11.98
9.30
6.45
3.53
0.64
-2.15
-4.86
-7.56
-10.39
-13.61
-17.47
-22.21
-27.96
-34.56
-41.44
-47.58
-51.58
-52.15
-48.47
-40.60
-29.51
-16.80
-4.13
7.24
16.62
23.89
29.12
32.45
34.04
34.09
32.99
31.26
29.42
27.81
26.54
25.51
24.53
23.43
22.14
20.70
19.20
17.77
16.42
15.04
13.42
11.27
8.45
5.03
1.27
-2.43
-5.79
-8.75
-11.45
-14.21
-17.42
-21.38
-26.25
-31.90
-37.83
-43.14
-46.64
-47.19
-44.02
-37.07
-27.03
-15.10
-2.74
8.75
18.36
25.55
30.13
32.28
32.41
31.10
28.98
26.60
24.48
22.96
22.14
21.92
21.99
21.94
21.38
20.17
18.39
16.33
14.30
12.41
10.63
8.73
6.50
3.83
0.81
-2.42
-5.64
-8.76
-11.78
-14.83
-18.13
-21.95
-26.45
-31.64
-37.21
-42.49
-46.52
-48.29
-46.95
-42.12
-34.08
-23.70
-12.22
-0.96
9.07
17.20
23.18
26.97
28.75
28.74
27.31
24.94
22.18
19.55
17.46
16.03
15.23
14.86
14.70
14.52
14.14
13.44
12.32
10.76
8.75
6.37
3.75
1.02
-1.65
-4.18
-6.52
-8.73
-11.02
-13.67
-17.01
-21.26
-26.35
-31.79
-36.72
-40.00
-40.57
-37.74
-31.47
-22.39
-11.63
-0.56
9.59
17.90
23.88
27.47
28.89
28.54
27.00
24.84
22.61
20.66
19.15
17.97
16.92
15.77
14.44
12.98
11.52
10.15
8.80
7.27
5.33
2.85
-0.09
-3.27
-6.39
-9.27
-11.90
-14.47
-17.29
-20.70
-24.93
-29.99
-35.58
-41.06
-45.52
-47.91
-47.35
-43.39
-36.17
-26.38
-15.10
-3.50
7.38
16.73
24.02
28.94
31.44
31.69
30.17
27.58
24.67
22.07
20.13
18.86
18.06
17.45
16.79
15.99
15.01
13.90
12.65
11.15
9.26
6.84
3.86
0.38
-3.40
-7.21
-10.85
-14.21
-17.32
-20.38
-23.70
-27.62
-32.37
-37.91
-43.81
-49.17
-52.74
-53.24
-49.85
-42.47
-31.87
-19.45
-6.79
4.79
14.48
21.98
27.35
30.76
32.39
32.43
31.18
29.10
26.74
24.63
23.10
22.19
21.68
21.23
20.53
19.45
18.05
16.46
14.85
13.30
11.69
9.86
7.58
4.78
1.52
-1.97
-5.44
-8.68
-11.72
-14.79
-18.28
-22.53
-27.72
-33.71
-40.01
-45.80
-50.07
-51.79
-50.18
-44.87
-36.18
-25.02
-12.68
-0.55
10.37
19.45
26.52
31.57
34.66
35.85
35.32
33.54
31.18
29.00
27.48
26.74
26.42
26.01
25.10
23.55
21.59
19.60
17.93
16.62
15.44
13.96
11.78
8.76
5.03
0.99
-2.91
-6.38
-9.37
-12.06
-14.73
-17.67
-21.11
-25.20
-30.03
-35.57
-41.50
-47.12
-51.36
-53.01
-51.05
-45.12
-35.63
-23.69
-10.82
1.55
12.39
21.16
27.67
31.97
34.15
34.35
32.89
30.31
27.35
24.75
23.01
22.19
21.96
21.78
21.15
19.88
18.10
16.14
14.33
12.85
11.61
10.35
8.75
6.56
3.75
0.46
-3.00
-6.33
-9.33
-11.97
-14.45
-17.04
-20.10
-23.86
-28.48
-33.91
-39.78
-45.38
-49.66
-51.41
-49.67
-43.99
-34.71
-22.89
-10.02
2.37
13.00
21.10
26.39
29.06
29.56
28.57
26.74
24.67
22.74
21.15
19.91
18.97
18.18
17.39
16.46
15.29
13.87
12.28
10.64
9.04
7.49
5.90
4.12
2.04
-0.36
-3.04
-5.92
-9.00
-12.36
-16.17
-20.62
-25.71
-31.10
-36.06
-39.51
-40.37
-37.86
-31.85
-22.91
-12.17
-0.97
9.45
18.23
24.93
29.46
31.93
32.56
31.66
29.59
26.74
23.50
20.27
17.34
14.94
13.15
11.91
11.03
10.25
9.31
7.99
6.17
3.79
0.87
-2.48
-6.12
-9.83
-13.41
-16.78
-20.02
-23.40
-27.32
-32.07
-37.69
-43.78
-49.42
-53.33
-54.20
-51.05
-43.62
-32.54
-19.14
-5.14
7.84
18.65
26.66
31.79
34.30
34.67
33.45
31.28
28.73
26.24
24.11
22.41
21.08
19.95
18.84
17.54
15.90
13.85
11.44
8.84
6.24
3.81
1.52
-0.77
-3.28
-6.18
-9.60
-13.58
-18.19
-23.49
-29.51
-36.08
-42.66
-48.39
-52.11
-52.77
-49.66
-42.70
-32.57
-20.44
-7.72
4.29
14.65
22.89
28.86
32.68
34.58
34.90
34.03
32.42
30.45
28.41
26.46
24.68
23.10
21.74
20.61
19.64
18.73
17.73
16.54
15.02
13.06
10.51
7.30
3.50
-0.63
-4.70
-8.38
-11.56
-14.48
-17.64
-21.61
-26.75
-32.98
-39.64
-45.58
-49.40
-49.82
-46.06
-38.15
-26.95
-13.90
-0.63
11.44
21.39
28.74
33.36
35.40
35.21
33.38
30.74
28.14
26.25
25.34
25.26
25.53
25.64
25.17
23.98
22.21
20.13
18.09
16.32
14.84
13.47
11.86
9.65
6.68
3.00
-1.13
-5.41
-9.59
-13.56
-17.42
-21.36
-25.66
-30.52
-35.92
-41.47
-46.37
-49.55
-49.97
-46.99
-40.57
-31.28
-20.17
-8.39
2.98
13.08
21.28
27.23
30.81
32.20
31.80
30.17
27.95
25.74
23.97
22.87
22.41
22.33
22.31
22.03
21.36
20.31
18.94
17.25
15.16
12.59
9.53
6.16
2.78
-0.33
-3.01
-5.28
-7.34
-9.46
-11.98
-15.25
-19.54
-24.93
-31.17
-37.60
-43.25
-46.99
-47.85
-45.27
-39.26
-30.37
-19.63
-8.28
2.49
11.75
18.97
24.03
27.10
28.53
28.74
28.12
27.07
25.93
24.87
23.90
22.90
21.75
20.40
18.95
17.57
16.37
15.33
14.24
12.84
10.94
8.44
5.45
2.14
-1.24
-4.50
-7.50
-10.25
-12.95
-15.96
-19.66
-24.22
-29.42
-34.61
-38.79
-40.84
-39.89
-35.52
-27.93
-17.93
-6.73
4.36
14.21
22.04
27.49
30.49
31.19
29.99
27.45
24.34
21.42
19.28
18.11
17.72
17.65
17.44
16.82
15.72
14.21
12.36
10.23
7.82
5.17
2.39
-0.43
-3.18
-5.86
-8.51
-11.22
-14.21
-17.73
-22.05
-27.30
-33.31
-39.47
-44.78
-48.09
-48.40
-45.16
-38.50
-29.10
-18.15
-6.92
3.45
12.19
18.95
23.71
26.67
28.08
28.25
27.51
26.24
24.78
23.39
22.15
20.94
19.62
18.07
16.40
14.82
13.56
12.71
12.08
11.31
9.99
7.83
4.79
1.09
-2.87
-6.68
-10.10
-13.11
-15.99
-19.18
-23.15
-28.14
-34.01
-40.12
-45.43
-48.69
-48.85
-45.33
-38.21
-28.27
-16.70
-4.83
6.16
15.44
22.55
27.32
29.82
30.34
29.44
27.77
26.01
24.60
23.69
23.09
22.48
21.58
20.32
18.81
17.23
15.72
14.33
12.99
11.57
9.99
8.18
6.10
3.77
1.25
-1.38
-4.05
-6.82
-9.81
-13.28
-17.50
-22.58
-28.34
-34.24
-39.38
-42.71
-43.29
-40.57
-34.60
-26.05
-16.00
-5.59
4.18
12.65
19.42
24.31
27.24
28.30
27.80
26.28
24.41
22.80
21.73
21.21
20.93
20.53
19.77
18.65
17.33
16.03
14.90
13.93
12.98
11.80
10.18
7.99
5.27
2.20
-1.00
-4.12
-7.08
-9.93
-12.83
-16.00
-19.67
-24.00
-28.92
-34.03
-38.57
-41.51
-41.82
-38.83
-32.50
-23.51
-13.04
-2.45
7.09
14.83
20.47
24.06
25.82
26.10
25.26
23.69
21.79
19.94
18.40
17.27
16.52
15.96
15.41
14.75
13.94
13.05
12.16
11.24
10.15
8.67
6.64
4.10
1.23
-1.68
-4.42
-6.98
-9.57
-12.51
-16.12
-20.53
-25.59
-30.82
-35.40
-38.37
-38.81
-36.13
-30.31
-21.96
-12.18
-2.21
6.90
14.50
20.34
24.42
26.83
27.67
27.10
25.42
23.12
20.77
18.87
17.64
17.02
16.71
16.31
15.57
14.40
12.90
11.21
9.44
7.57
5.49
3.08
0.31
-2.68
-5.67
-8.47
-10.97
-13.22
-15.39
-17.67
-20.31
-23.54
-27.55
-32.36
-37.64
-42.63
-46.22
-47.22
-44.80
-38.80
-29.79
-18.97
-7.72
2.73
11.57
18.39
23.13
25.90
26.90
26.41
24.84
22.69
20.50
18.70
17.51
16.89
16.61
16.37
15.96
15.29
14.44
13.53
12.59
11.55
10.21
8.39
5.98
3.02
-0.26
-3.56
-6.62
-9.31
-11.72
-14.08
-16.75
-20.04
-24.15
-29.04
-34.29
-39.13
-42.48
-43.22
-40.56
-34.39
-25.34
-14.64
-3.72
6.20
14.37
20.52
24.66
26.92
27.48
26.61
24.71
22.37
20.17
18.53
17.54
17.00
16.53
15.75
14.52
12.94
11.27
9.84
8.82
8.17
7.56
6.58
4.89
2.39
-0.71
-4.02
-7.11
-9.77
-12.06
-14.22
-16.65
-19.67
-23.47
-28.00
-32.90
-37.50
-40.85
-41.97
-40.11
-35.07
-27.29
-17.80
-7.84
1.48
9.39
15.48
19.67
22.00
22.58
21.70
19.76
17.36
15.08
13.38
12.39
11.96
11.75
11.45
10.86
10.02
9.07
8.16
7.32
6.45
5.39
3.95
2.11
-0.02
-2.23
-4.31
-6.15
-7.85
-9.62
-11.82
-14.74
-18.55
-23.15
-28.12
-32.70
-35.95
-36.94
-35.02
-30.00
-22.32
-12.93
-3.03
6.19
13.83
19.36
22.66
23.89
23.45
21.85
19.66
17.43
15.55
14.20
13.31
12.65
11.98
11.18
10.27
9.35
8.51
7.68
6.68
5.29
3.39
1.04
-1.60
-4.26
-6.73
-8.96
-11.04
-13.19
-15.71
-18.87
-22.81
-27.40
-32.18
-36.37
-39.00
-39.14
-36.22
-30.19
-21.66
-11.68
-1.50
7.72
15.17
20.48
23.67
25.03
25.01
24.06
22.56
20.79
18.93
17.10
15.39
13.86
12.55
11.48
10.59
9.76
8.83
7.66
6.14
4.28
2.15
-0.13
-2.45
-4.73
-6.98
-9.23
-11.64
-14.37
-17.65
-21.70
-26.63
-32.27
-38.03
-42.92
-45.75
-45.49
-41.61
-34.31
-24.47
-13.37
-2.40
7.34
15.14
20.75
24.22
25.83
26.00
25.20
23.86
22.36
20.95
19.76
18.77
17.91
17.08
16.21
15.26
14.26
13.24
12.18
11.04
9.70
8.00
5.86
3.28
0.37
-2.67
-5.66
-8.48
-11.11
-13.74
-16.64
-20.14
-24.40
-29.25
-34.05
-37.81
-39.42
-38.00
-33.24
-25.53
-15.87
-5.56
4.16
12.36
18.58
22.72
24.93
25.51
24.83
23.30
21.36
19.42
17.77
16.56
15.71
15.04
14.38
13.62
12.81
12.01
11.28
10.50
9.48
8.00
5.97
3.46
0.71
-1.98
-4.39
-6.44
-8.26
-10.12
-12.42
-15.47
-19.45
-24.18
-29.07
-33.20
-35.49
-34.99
-31.28
-24.58
-15.75
-6.09
3.11
10.84
16.58
20.27
22.17
22.62
21.96
20.50
18.58
16.53
14.68
13.22
12.18
11.43
10.77
10.05
9.21
8.27
7.27
6.18
4.95
3.47
1.70
-0.37
-2.67
-5.15
-7.79
-10.66
-13.86
-17.46
-21.50
-25.81
-29.98
-33.39
-35.24
-34.79
-31.62
-25.73
-17.60
-8.11
1.73
10.99
18.91
25.02
29.06
31.05
31.20
29.93
27.77
25.26
22.85
20.84
19.39
18.48
17.99
17.69
17.27
16.44
15.02
13.01
10.57
7.93
5.34
2.86
0.50
-1.83
-4.24
-6.83
-9.75
-13.20
-17.34
-22.18
-27.42
-32.32
-35.87
-37.03
-35.06
