1629053265.00
64.000000
-0.00
-0.00
-0.00
-0.00
-0.00
-0.00
-0.00
-0.00
-0.00
-0.00
0.00
0.01
0.01
-0.00
-0.03
-0.05
-0.05
0.00
0.13
0.36
0.66
1.01
1.37
1.72
2.06
2.40
2.79
3.24
3.80
4.42
5.06
5.66
6.20
6.68
7.15
7.68
8.31
9.14
10.09
11.04
11.88
12.56
13.14
13.76
14.65
15.96
17.91
20.32
22.90
25.38
27.58
29.57
31.68
34.32
37.81
42.54
48.15
54.11
59.84
64.98
69.59
74.14
79.34
85.70
93.76
103.02
112.66
121.79
129.81
136.73
143.15
150.42
157.27
166.00
177.24
191.08
206.29
219.92
227.57
224.59
207.60
175.78
131.57
78.84
21.92
-36.00
-93.47
-150.31
-206.67
-262.23
-316.01
-366.42
-412.43
-453.35
-488.74
-517.96
-539.80
-552.60
-554.45
-543.99
-520.62
-485.34
-440.29
-388.42
-332.88
-276.34
-220.68
-166.91
-115.48
-66.56
-20.71
21.15
57.80
88.10
111.44
128.05
139.02
145.98
150.50
153.65
155.71
156.30
154.77
150.55
143.35
133.15
120.34
106.03
92.39
82.58
79.89
86.33
101.34
121.41
141.24
155.66
161.67
159.17
150.49
138.73
126.28
114.11
102.16
90.18
78.42
67.80
59.11
52.61
47.87
43.98
39.92
35.11
29.61
24.01
19.11
15.52
13.36
12.21
11.30
9.79
7.23
3.68
-0.27
-3.79
-6.17
-7.07
-6.68
-5.65
-4.78
-4.63
-5.33
-6.58
-7.81
-8.62
-8.85
-8.64
-8.21
-7.67
-6.94
-5.96
-4.81
-3.84
-3.45
-3.88
-5.01
-6.35
-7.35
-7.74
-7.63
-7.52
-7.93
-9.04
-10.58
-11.78
-11.66
-9.48
-4.98
1.39
8.52
14.98
19.46
21.17
20.11
16.94
12.72
8.49
4.92
2.29
0.52
-0.57
-1.15
-1.34
-1.25
-1.02
-0.81
-0.78
-0.93
-1.11
-1.07
-0.58
0.44
1.84
3.34
4.58
5.33
5.58
5.47
5.29
5.24
5.40
5.73
6.04
6.17
6.00
5.53
4.79
3.79
2.54
0.94
-1.03
-3.28
-5.60
-7.73
-9.45
-10.69
-11.52
-12.06
-12.49
-12.90
-13.27
-13.54
-13.63
-13.45
-13.01
-12.34
-11.57
-10.87
-10.44
-10.45
-11.02
-12.06
-13.25
-13.97
-13.42
-10.90
-6.12
0.59
8.15
15.13
20.17
22.51
22.15
19.75
16.30
12.68
9.48
6.94
5.08
3.83
3.03
2.53
2.15
1.80
1.51
1.40
1.66
2.37
3.49
4.86
6.23
7.46
8.42
9.06
9.32
9.14
8.51
7.49
6.22
4.93
3.83
3.04
2.60
2.35
1.97
1.10
-0.44
-2.55
-4.90
-6.99
-8.43
-9.13
-9.30
-9.37
-9.77
-10.79
-12.53
-14.90
-17.63
-20.40
-22.86
-24.80
-26.27
-27.62
-29.43
-32.36
-36.75
-42.33
-48.16
-52.71
-54.30
-51.59
-44.10
-32.34
-17.79
-2.38
11.99
23.93
32.80
38.64
41.85
43.04
42.77
41.53
39.75
37.81
35.98
34.41
33.11
31.98
30.90
29.81
28.69
27.61
26.69
26.05
25.79
25.88
26.14
26.29
25.97
24.93
23.07
20.52
17.55
14.45
11.51
8.87
6.57
4.57
2.73
0.91
-1.03
-3.14
-5.38
-7.65
-9.80
-11.76
-13.54
-15.22
-16.96
-18.91
-21.19
-23.82
-26.69
-29.62
-32.33
-34.70
-36.75
-38.81
-41.37
-44.95
-49.89
-56.10
-62.98
-69.38
-73.77
-74.58
-70.64
-61.63
-48.25
-32.15
-15.43
-0.05
12.66
22.22
28.87
33.16
35.73
37.03
37.42
37.16
36.51
35.71
34.87
34.04
33.15
32.18
31.20
30.36
29.87
29.86
30.34
31.11
31.87
32.28
32.06
31.08
29.38
27.13
24.62
22.09
19.73
17.58
15.56
13.56
11.44
9.16
6.75
4.29
1.89
-0.38
-2.51
-4.55
-6.53
-8.46
-10.29
-12.02
-13.70
-15.53
-17.75
-20.55
-23.94
-27.68
-31.37
-34.62
-37.21
-39.22
-40.99
-43.09
-46.14
-50.63
-56.69
-63.84
-70.93
-76.20
-77.79
-74.29
-65.33
-51.75
-35.39
-18.46
-2.98
9.75
19.25
25.70
29.71
31.99
33.20
33.83
34.20
34.41
34.45
34.26
33.82
33.16
32.37
31.55
30.84
30.35
30.19
30.41
31.00
31.80
32.53
32.89
32.57
31.45
29.58
27.17
24.55
22.03
19.85
18.07
16.56
15.11
13.42
11.32
8.74
5.77
2.62
-0.50
-3.40
-6.00
-8.31
-10.41
-12.47
-14.67
-17.15
-19.94
-22.99
-26.13
-29.17
-32.01
-34.77
-37.78
-41.53
-46.47
-52.73
-59.92
-67.02
-72.51
-74.72
-72.29
-64.59
-52.03
-35.94
-18.29
-1.12
13.87
25.71
34.13
39.47
42.33
43.34
43.00
41.72
39.90
37.89
36.03
34.55
33.48
32.73
32.12
31.60
31.23
31.15
31.44
32.03
32.66
32.98
32.70
31.62
29.74
27.21
24.28
21.21
18.23
15.49
12.94
10.43
7.76
4.81
1.65
-1.53
-4.46
-7.01
-9.26
-11.51
-14.07
-17.13
-20.65
-24.40
-28.11
-31.58
-34.76
-37.75
-40.85
-44.41
-48.88
-54.62
-61.65
-69.38
-76.52
-81.19
-81.49
-76.14
-65.03
-49.35
-31.26
-13.20
2.84
15.74
25.30
31.96
36.44
39.40
41.33
42.50
43.07
43.17
42.91
42.39
41.67
40.84
39.95
39.05
38.23
37.61
37.30
37.40
37.87
38.54
39.05
38.98
38.01
36.01
33.16
29.81
26.44
23.38
20.79
18.57
16.53
14.43
12.07
9.35
6.31
3.11
-0.04
-2.95
-5.52
-7.81
-10.06
-12.58
-15.65
-19.34
-23.49
-27.75
-31.75
-35.28
-38.39
-41.43
-44.93
-49.45
-55.31
-62.37
-69.80
-76.20
-79.77
-78.86
-72.50
-60.79
-44.99
-27.14
-9.54
5.96
18.25
27.14
33.02
36.61
38.57
39.41
39.49
39.06
38.33
37.48
36.64
35.83
35.01
34.10
33.14
32.26
31.69
31.60
32.00
32.64
33.10
32.92
31.77
29.62
26.67
23.33
20.01
17.04
14.56
12.49
10.65
8.76
6.63
4.15
1.35
-1.59
-4.50
-7.22
-9.71
-12.07
-14.53
-17.28
-20.43
-23.90
-27.38
-30.57
-33.23
-35.44
-37.63
-40.47
-44.64
-50.44
-57.59
-64.99
-71.01
-73.80
-71.87
-64.62
-52.56
-37.24
-20.73
-5.07
8.34
18.90
26.74
32.41
36.46
39.27
41.04
41.86
41.90
41.43
40.72
39.98
39.26
38.54
37.72
36.82
35.91
35.11
34.51
34.07
33.63
32.97
31.92
30.38
28.35
25.91
23.15
20.13
16.91
13.49
9.92
6.29
2.72
-0.67
-3.86
-6.89
-9.89
-13.01
-16.35
-19.93
-23.66
-27.35
-30.81
-33.91
-36.68
-39.30
-42.19
-45.88
-50.84
-57.20
-64.45
-71.40
-76.26
-77.21
-72.96
-63.26
-49.11
-32.42
-15.47
-0.23
12.14
21.36
27.83
32.27
35.35
37.55
39.14
40.24
40.88
41.06
40.75
39.95
38.74
37.28
35.83
34.66
33.97
33.87
34.29
35.01
35.71
36.05
35.72
34.58
32.66
30.17
27.41
24.63
22.01
19.60
17.36
15.16
12.88
10.39
7.61
4.54
1.31
-1.87
-4.78
-7.25
-9.29
-11.08
-12.91
-15.09
-17.86
-21.26
-25.17
-29.26
-33.15
-36.46
-39.06
-41.06
-42.90
-45.27
-48.90
-54.28
-61.42
-69.61
-77.38
-82.75
-83.71
-78.92
-68.19
-52.65
-34.43
-16.04
0.40
13.59
23.17
29.54
33.43
35.63
36.78
37.32
37.53
37.54
37.41
37.13
36.65
35.95
35.06
34.10
33.28
32.83
32.94
33.63
34.70
35.79
36.47
36.46
35.68
34.26
32.43
30.39
28.20
25.88
23.40
20.80
18.19
15.68
13.33
11.12
8.96
6.71
4.25
1.56
-1.28
-4.13
-6.82
-9.26
-11.50
-13.66
-15.97
-18.62
-21.68
-25.09
-28.67
-32.20
-35.50
-38.46
-41.18
-43.92
-47.13
-51.32
-56.84
-63.63
-70.94
-77.35
-81.03
-80.24
-73.94
-62.20
-46.33
-28.45
-10.92
4.35
16.31
24.87
30.59
34.28
36.64
38.09
38.82
38.91
38.50
37.80
37.08
36.50
36.11
35.79
35.40
34.88
34.27
33.76
33.55
33.67
33.96
34.08
33.62
32.29
30.06
27.16
23.99
20.95
18.28
15.94
13.72
11.36
8.72
5.86
2.98
0.35
-1.91
-3.86
-5.72
-7.80
-10.31
-13.32
-16.69
-20.20
-23.55
-26.52
-29.01
-31.09
-33.03
-35.28
-38.40
-42.91
-48.99
-56.29
-63.70
-69.50
-71.75
-68.90
-60.40
-46.94
-30.39
-13.12
2.62
15.38
24.68
30.87
34.64
36.68
37.50
37.37
36.51
35.17
33.61
32.11
30.81
29.79
29.05
28.62
28.58
28.98
29.81
30.91
32.04
32.86
33.13
32.66
31.43
29.52
27.11
24.38
21.47
18.41
15.22
11.88
8.40
4.88
1.45
-1.75
-4.68
-7.42
-10.18
-13.20
-16.65
-20.54
-24.68
-28.75
-32.47
-35.70
-38.56
-41.43
-44.84
-49.34
-55.21
-62.22
-69.49
-75.52
-78.51
-76.85
-69.73
-57.44
-41.40
-23.73
-6.66
8.06
19.52
27.64
32.88
35.97
37.60
38.33
38.53
38.42
38.09
37.56
36.78
35.74
34.46
33.07
31.78
30.81
30.37
30.59
31.41
32.63
33.84
34.54
34.30
32.87
30.31
27.00
23.48
20.26
17.68
15.79
14.38
13.07
11.45
9.24
6.33
2.84
-0.95
-4.68
-8.00
-10.69
-12.73
-14.35
-15.89
-17.79
-20.34
-23.67
-27.58
-31.71
-35.59
-38.90
-41.64
-44.19
-47.20
-51.35
-57.06
-64.22
-71.94
-78.66
-82.44
-81.50
-74.80
-62.52
-46.04
-27.53
-9.32
6.77
19.72
29.28
35.73
39.55
41.23
41.32
40.40
39.05
37.74
36.70
35.94
35.29
34.61
33.82
32.99
32.26
31.79
31.65
31.87
32.32
32.83
33.14
33.00
32.26
30.88
28.95
26.65
24.18
21.66
19.20
16.81
14.50
12.26
10.07
7.91
5.79
3.67
1.53
-0.69
-3.00
-5.38
-7.73
-9.91
-11.79
-13.39
-14.89
-16.62
-18.87
-21.75
-25.14
-28.67
-31.96
-34.74
-37.03
-39.12
-41.50
-44.72
-49.24
-55.17
-62.10
-68.96
-74.08
-75.62
-72.09
-62.96
-48.89
-31.63
-13.47
3.41
17.52
28.20
35.51
39.91
41.99
42.27
41.21
39.28
36.98
34.77
32.96
31.70
30.88
30.30
29.76
29.17
28.63
28.25
28.14
28.24
28.37
28.27
27.75
26.74
25.27
23.44
21.31
18.89
16.11
12.96
9.46
5.73
1.99
-1.54
-4.75
-7.64
-10.38
-13.22
-16.34
-19.78
-23.37
-26.83
-29.89
-32.49
-34.80
-37.25
-40.39
-44.72
-50.49
-57.52
-65.03
-71.65
-75.68
-75.45
-69.95
-59.13
-44.15
-26.99
-9.96
5.05
16.94
25.55
31.35
35.10
37.41
38.69
39.11
38.81
38.01
36.96
35.89
34.92
34.00
33.10
32.19
31.43
30.98
30.99
31.40
31.95
32.28
32.01
30.97
29.18
26.86
24.26
21.54
18.72
15.68
12.31
8.60
4.74
1.00
-2.30
-5.05
-7.41
-9.76
-12.50
-15.86
-19.75
-23.84
-27.67
-30.93
-33.54
-35.75
-38.06
-41.02
-45.19
-50.82
-57.73
-65.15
-71.65
-75.52
-75.12
-69.50
-58.79
-44.19
-27.65
-11.27
3.26
14.97
23.66
29.68
33.60
36.05
37.52
38.36
38.78
38.86
38.60
37.98
37.00
35.70
34.23
32.73
31.41
30.44
29.89
29.74
29.78
29.68
29.08
27.69
25.48
22.69
19.79
17.32
15.69
15.03
15.16
15.64
15.95
15.59
14.29
12.06
9.12
5.88
2.70
-0.17
-2.74
-5.22
-7.90
-11.01
-14.60
-18.46
-22.33
-25.94
-29.18
-32.12
-34.94
-37.92
-41.41
-45.76
-51.20
-57.64
-64.42
-70.24
-73.35
-72.16
-65.76
-54.38
-39.36
-22.73
-6.56
7.55
18.79
27.01
32.55
35.93
37.68
38.31
38.26
37.86
37.35
36.77
36.08
35.18
34.04
32.72
31.41
30.32
29.67
29.54
29.83
30.30
30.64
30.58
29.94
28.71
26.96
24.82
22.44
19.92
17.35
14.78
12.19
9.54
6.80
3.99
1.22
-1.31
-3.48
-5.30
-7.00
-8.97
-11.53
-14.75
-18.41
-22.07
-25.25
-27.71
-29.50
-31.02
-32.81
-35.47
-39.40
-44.67
-50.85
-56.92
-61.39
-62.68
-59.53
-51.54
-39.32
-24.39
-8.74
5.80
17.92
27.05
33.24
36.90
38.56
38.73
37.87
36.38
34.63
32.92
31.45
30.28
29.37
28.57
27.75
26.89
26.11
25.60
25.54
25.93
26.57
27.05
26.98
26.10
24.42
22.18
19.70
17.25
14.91
12.57
9.98
6.97
3.51
-0.22
-3.88
-7.18
-10.01
-12.52
-15.03
-17.89
-21.26
-25.03
-28.89
-32.45
-35.44
-37.85
-39.87
-41.88
-44.36
-47.79
-52.52
-58.54
-65.31
-71.62
-75.78
-76.07
-71.35
-61.48
-47.44
-31.07
-14.42
0.76
13.42
23.28
30.56
35.77
39.41
41.92
43.62
44.70
45.23
45.19
44.52
43.20
41.32
39.09
36.83
34.85
33.43
32.71
32.67
33.13
33.81
34.41
34.63
34.31
33.36
31.80
29.75
27.32
24.72
22.12
19.67
17.43
15.36
13.33
11.20
8.90
6.43
3.90
1.40
-0.94
-3.08
-4.98
-6.67
-8.25
-9.93
-11.92
-14.41
-17.45
-20.85
-24.30
-27.43
-30.03
-32.07
-33.77
-35.53
-37.82
-41.13
-45.77
-51.72
-58.45
-64.79
-69.12
-69.72
-65.41
-56.03
-42.58
-26.98
-11.41
2.29
13.17
21.09
26.51
30.06
32.26
33.44
33.80
33.56
32.98
32.32
31.73
31.21
30.65
29.96
29.15
28.36
27.83
27.74
28.11
28.76
29.39
29.62
29.21
28.07
26.29
24.09
21.73
19.43
17.30
15.41
13.74
12.26
10.89
9.56
8.24
6.92
5.67
4.53
3.48
2.43
1.19
-0.41
-2.42
-4.69
-6.90
-8.75
-10.12
-11.16
-12.26
-13.86
-16.21
-19.21
-22.54
-25.74
-28.48
-30.65
-32.34
-33.80
-35.39
-37.52
-40.55
-44.70
-49.81
-55.17
-59.48
-61.21
-58.99
-52.20
-41.18
-27.29
-12.42
1.54
13.15
21.75
27.37
30.51
31.85
32.00
31.43
30.46
29.35
28.27
27.36
26.66
26.13
25.69
25.25
24.81
24.47
24.36
24.58
25.16
26.00
26.84
27.36
27.23
26.24
24.35
21.74
18.73
15.71
12.96
10.60
8.58
6.76
4.95
3.03
0.95
-1.26
-3.50
-5.63
-7.54
-9.19
-10.64
-12.12
-13.90
-16.16
-18.91
-21.98
-25.05
-27.87
-30.28
-32.34
-34.29
-36.47
-39.32
-43.21
-48.32
-54.40
-60.61
-65.59
-67.73
-65.66
-58.77
-47.42
-32.95
-17.25
-2.26
10.47
20.11
26.54
30.24
32.00
32.67
32.88
33.03
33.18
33.24
33.08
32.60
31.78
30.71
29.50
28.30
27.31
26.69
26.54
26.82
27.39
27.97
28.24
27.96
27.01
25.43
23.38
21.05
18.62
16.18
13.76
11.37
9.06
6.88
4.89
3.07
1.34
-0.40
-2.19
-4.01
-5.78
-7.43
-9.00
-10.63
-12.53
-14.88
-17.74
-21.02
-24.56
-28.14
-31.54
-34.63
-37.30
-39.59
-41.69
-44.02
-47.12
-51.48
-57.24
-63.91
-70.30
-74.69
-75.37
-71.14
-61.82
-48.33
-32.41
-16.10
-1.19
11.16
20.49
26.92
30.94
33.19
34.31
34.85
35.15
35.42
35.63
35.67
35.43
34.84
33.95
32.88
31.85
31.05
30.65
30.69
31.07
31.53
31.78
31.54
30.66
29.13
27.05
24.58
21.88
19.11
16.44
14.00
11.85
9.95
8.19
6.39
4.44
2.31
0.06
-2.21
-4.45
-6.58
-8.59
-10.44
-12.15
-13.79
-15.56
-17.65
-20.22
-23.23
-26.46
-29.59
-32.36
-34.68
-36.74
-38.91
-41.68
-45.49
-50.63
-56.99
-63.93
-70.26
-74.33
-74.49
-69.62
-59.52
-45.13
-28.27
-11.10
4.45
17.12
26.45
32.64
36.28
38.11
38.77
38.77
38.46
38.02
37.47
36.77
35.84
34.62
33.16
31.63
30.32
29.50
29.36
29.91
30.93
32.04
32.82
32.90
32.05
30.27
27.71
24.68
21.56
18.71
16.35
14.46
12.80
10.96
8.62
5.70
2.39
-0.89
-3.73
-5.90
-7.46
-8.70
-10.02
-11.77
-14.13
-17.08
-20.42
-23.83
-26.94
-29.51
-31.50
-33.20
-35.22
-38.24
-42.76
-48.71
-55.32
-61.15
-64.41
-63.52
-57.54
-46.54
-31.72
-15.00
1.40
15.60
26.44
33.68
37.76
39.53
39.83
39.24
38.10
36.56
34.75
32.88
31.17
29.81
28.84
28.21
27.77
27.46
27.29
27.31
27.57
27.94
28.18
27.98
27.04
25.26
22.73
19.73
16.61
13.68
11.09
8.87
6.91
5.08
3.28
1.42
-0.54
-2.72
-5.27
-8.36
-12.08
-16.35
-20.88
-25.27
-29.12
-32.26
-34.79
-37.13
-39.86
-43.60
-48.71
-55.11
-62.11
-68.46
-72.52
-72.71
-67.97
-58.16
-44.16
-27.69
-10.83
4.55
17.15
26.48
32.66
36.26
38.03
38.65
38.64
38.34
37.93
37.48
37.01
36.50
35.88
35.07
34.01
32.73
31.39
30.25
29.59
29.53
29.98
30.60
30.96
30.67
29.54
27.60
25.07
22.22
19.33
16.58
14.05
11.77
9.64
7.51
5.22
2.65
-0.20
-3.19
-6.07
-8.69
-10.98
-13.05
-15.13
-17.43
-20.09
-23.04
-26.16
-29.21
-32.02
-34.48
-36.65
-38.78
-41.27
-44.63
-49.30
-55.41
-62.62
-69.91
-75.75
-78.34
-76.21
-68.66
-56.06
-39.85
-22.13
-5.08
9.57
20.90
28.75
33.58
36.16
37.31
37.76
38.00
38.24
38.48
38.49
38.04
36.98
35.39
33.54
31.78
30.45
29.76
29.72
30.21
30.97
31.69
32.03
31.73
30.59
28.62
25.96
22.85
19.59
16.36
13.29
10.39
7.66
5.12
2.90
1.13
-0.07
-0.73
-1.01
-1.21
-1.58
-2.27
-3.27
-4.50
-5.91
-7.57
-9.69
-12.40
-15.70
-19.35
-22.95
-26.12
-28.68
-30.73
-32.64
-34.92
-38.08
-42.47
-48.11
-54.61
-61.04
-66.03
-68.05
-65.77
-58.56
-46.74
-31.63
-15.14
0.64
14.03
24.09
30.67
34.27
35.73
35.93
35.51
34.82
34.00
33.04
31.98
30.87
29.82
28.89
28.15
27.60
27.31
27.33
27.72
28.45
29.36
30.11
30.37
29.82
28.32
25.96
23.00
19.75
16.47
13.29
10.16
7.02
3.82
0.59
-2.54
-5.55
-8.47
-11.46
-14.65
-18.12
-21.74
-25.24
-28.37
-30.93
-32.96
-34.65
-36.44
-38.83
-42.38
-47.39
-53.71
-60.56
-66.50
-69.75
-68.72
-62.52
-51.33
-36.41
-19.71
-3.37
10.89
22.07
29.98
35.01
37.88
39.30
39.86
39.92
39.70
39.32
38.80
38.12
37.20
35.94
34.35
32.54
30.79
29.47
28.85
29.01
29.78
30.74
31.34
31.08
29.66
27.09
23.69
20.00
16.56
13.71
11.43
9.41
7.23
4.57
1.43
-1.94
-5.15
-7.90
-10.19
-12.28
-14.58
-17.39
-20.77
-24.49
-28.16
-31.44
-34.19
-36.55
-38.89
-41.68
-45.40
-50.38
-56.65
-63.83
-70.90
-76.31
-78.20
-74.94
-65.78
-51.24
-33.08
-13.80
4.09
18.78
29.52
36.55
40.68
42.86
43.89
44.27
44.23
43.88
43.24
42.33
41.14
39.68
38.02
36.24
34.48
32.90
31.64
30.83
30.50
30.53
30.66
30.54
29.77
28.11
25.53
22.27
18.74
15.40
12.59
10.44
8.81
7.43
5.97
4.17
1.92
-0.73
-3.58
-6.36
-8.83
-10.88
-12.59
-14.20
-16.08
-18.53
-21.69
-25.42
-29.33
-32.90
-35.65
-37.37
-38.20
-38.66
-39.45
-41.30
-44.72
-49.79
-55.99
-62.14
-66.55
-67.45
-63.48
-54.23
-40.48
-23.97
-6.94
8.56
21.13
30.19
35.87
38.71
39.39
38.65
37.14
35.45
33.98
32.90
32.13
31.50
30.79
29.90
28.90
27.95
27.29
27.09
27.41
28.10
28.86
29.30
29.12
28.18
26.55
24.44
22.06
19.52
16.84
13.97
10.93
7.81
4.78
1.97
-0.59
-3.00
-5.42
-8.01
-10.84
-13.84
-16.84
-19.62
-21.96
-23.79
-25.22
-26.59
-28.36
-31.06
-35.05
-40.42
-46.71
-52.93
-57.56
-58.96
-55.81
-47.67
-35.22
-20.15
-4.63
9.32
20.41
28.27
33.21
35.95
37.12
37.22
36.52
35.22
33.54
31.76
30.08
28.60
27.30
26.06
24.79
23.52
22.40
21.63
21.35
21.49
21.80
21.95
21.60
20.62
19.05
17.07
14.84
12.45
9.92
7.20
4.33
1.40
-1.41
-3.93
-6.10
-8.00
-9.89
-12.07
-14.76
-17.99
-21.58
-25.17
-28.39
-31.01
-33.09
-34.91
-36.94
-39.73
-43.73
-49.14
-55.68
-62.44
-67.91
-70.31
-68.05
-60.39
-47.74
-31.69
-14.49
1.57
14.85
24.65
31.11
34.92
36.91
37.78
38.03
37.94
37.65
37.18
36.48
35.48
34.11
32.40
30.49
28.59
26.99
25.92
25.51
25.75
26.44
27.24
27.74
27.55
26.44
24.41
21.66
18.58
15.54
12.80
10.47
8.47
6.59
4.60
2.33
-0.29
-3.15
-6.03
-8.64
-10.76
-12.38
-13.69
-15.07
-16.88
-19.34
-22.39
-25.72
-28.96
-31.81
-34.15
-36.08
-37.85
-39.79
-42.34
-45.95
-50.95
-57.23
-63.99
-69.72
-72.44
-70.40
-62.71
-49.85
-33.52
-16.14
-0.00
13.28
23.06
29.54
33.34
35.22
35.78
35.49
34.68
33.62
32.49
31.42
30.44
29.51
28.55
27.51
26.39
25.33
24.53
24.22
24.50
25.28
26.20
26.79
26.59
25.34
23.10
20.19
17.07
14.19
11.81
9.95
8.38
6.74
4.74
2.28
-0.53
-3.35
-5.81
-7.71
-9.09
-10.26
-11.65
-13.59
-16.16
-19.17
-22.23
-24.95
-27.10
-28.67
-29.91
-31.25
-33.18
-36.18
-40.48
-45.93
-51.78
-56.70
-59.01
-57.15
-50.33
-38.80
-23.96
-7.85
7.43
20.31
30.02
36.57
40.34
41.88
41.65
40.06
37.53
34.55
31.64
29.21
27.51
26.52
26.04
25.79
25.52
25.10
24.52
23.90
23.35
22.91
22.48
21.88
20.89
19.34
17.14
14.37
11.19
7.80
4.45
1.30
-1.58
-4.27
-6.99
-9.97
-13.34
-17.04
-20.82
-24.31
-27.21
-29.44
-31.21
-32.95
-35.21
-38.47
-43.02
-48.85
-55.48
-61.86
-66.49
-67.68
-64.11
-55.32
-42.00
-25.83
-9.07
6.21
18.58
27.50
33.21
36.39
37.84
38.18
37.82
36.98
35.80
34.39
32.91
31.49
30.22
29.09
28.00
26.88
25.76
24.75
24.03
23.71
23.73
23.84
23.66
22.79
20.98
18.20
14.69
10.85
7.12
3.84
1.09
-1.29
-3.68
-6.44
-9.81
-13.71
-17.84
-21.82
-25.30
-28.17
-30.49
-32.52
-34.63
-37.28
-40.93
-45.96
-52.37
-59.57
-66.25
-70.61
-70.84
-65.76
-55.34
-40.77
-24.12
-7.65
6.85
18.36
26.71
32.27
35.65
37.45
38.18
38.27
38.05
37.76
37.46
37.10
36.50
35.50
34.07
32.34
30.62
29.25
28.50
28.45
28.91
29.50
29.74
29.23
27.83
25.61
22.89
20.04
17.36
14.96
12.77
10.57
8.16
5.43
2.43
-0.62
-3.50
-6.03
-8.26
-10.39
-12.74
-15.53
-18.81
-22.39
-25.89
-28.97
-31.48
-33.51
-35.44
-37.82
-41.17
-45.84
-51.77
-58.37
-64.44
-68.39
-68.57
-63.83
-53.94
-39.77
-23.16
-6.32
8.73
20.68
29.11
34.35
37.13
38.24
38.31
37.73
36.71
35.38
33.85
32.25
30.70
29.27
28.03
27.01
26.27
25.84
25.74
25.90
26.20
26.42
26.35
25.84
24.76
23.09
20.82
18.04
14.90
11.66
8.58
5.89
3.63
1.68
-0.29
-2.61
-5.48
-8.91
-12.63
-16.31
-19.60
-22.36
-24.63
-26.66
-28.78
-31.38
-34.83
-39.38
-45.03
-51.30
-57.15
-61.09
-61.51
-57.26
-48.14
-35.04
-19.74
-4.35
9.31
20.16
27.93
32.98
35.92
37.35
37.72
37.32
36.39
35.17
33.82
32.50
31.23
30.01
28.81
27.65
26.66
25.98
25.73
25.91
26.32
26.66
26.52
25.58
23.74
21.08
17.89
14.52
11.24
8.14
5.16
2.22
-0.74
-3.63
-6.30
-8.66
-10.74
-12.74
-14.94
-17.54
-20.55
-23.80
-27.00
-29.90
-32.40
-34.63
-36.95
-39.87
-43.89
-49.30
-55.91
-62.90
-68.88
-72.15
-71.15
-65.04
-54.01
-39.30
-22.89
-6.91
6.91
17.65
25.20
30.10
33.13
35.09
36.47
37.53
38.31
38.77
38.85
38.55
37.89
36.95
35.86
34.75
33.79
33.10
32.77
32.79
33.04
33.27
33.20
32.59
31.33
29.47
27.24
24.86
22.51
20.22
17.91
15.54
13.12
10.72
8.42
6.20
3.94
1.48
-1.23
-4.09
-6.84
-9.23
-11.15
-12.66
-14.05
-15.61
-17.58
-20.03
-22.89
-25.95
-28.95
-31.68
-33.99
-35.91
-37.73
-39.87
-42.92
-47.33
-53.22
-60.12
-66.88
-71.80
-73.08
-69.33
-60.13
-46.25
-29.51
-12.20
3.51
16.17
25.24
31.01
34.20
35.64
35.99
35.66
34.93
33.98
32.97
32.02
31.16
30.35
29.50
28.60
27.76
27.16
26.99
27.35
28.13
29.11
29.95
30.34
30.04
28.94
27.06
24.55
21.68
18.76
16.08
13.81
11.94
10.32
8.75
7.03
5.07
2.88
0.53
-1.84
-4.10
-6.14
-7.93
-9.54
-11.15
-13.01
-15.27
-17.94
-20.82
-23.63
-26.10
-28.12
-29.81
-31.46
-33.48
-36.33
-40.32
-45.51
-51.48
-57.19
-61.08
-61.46
-57.06
-47.52
-33.66
-17.28
-0.59
14.36
26.25
34.58
39.55
41.75
41.88
40.56
38.33
35.65
32.95
30.53
28.56
27.07
25.96
25.13
24.48
24.05
23.91
24.13
24.64
25.25
25.63
25.45
24.50
22.74
20.37
17.64
14.87
12.25
9.84
7.61
5.39
3.03
0.41
-2.47
-5.50
-8.51
-11.30
-13.79
-16.01
-18.13
-20.39
-22.96
-25.82
-28.83
-31.74
-34.35
-36.64
-38.78
-41.13
-44.13
-48.20
-53.52
-59.80
-66.14
-71.05
-72.78
-69.82
-61.49
-48.29
-31.76
-14.12
2.47
16.42
27.00
34.23
38.64
40.88
41.55
41.13
40.03
38.59
37.15
35.99
35.20
34.68
34.20
33.50
32.53
31.43
30.53
30.14
30.33
30.86
31.31
31.21
30.32
28.69
26.59
24.30
22.02
19.76
17.46
15.04
12.55
10.07
7.73
5.55
3.45
1.29
-1.05
-3.57
-6.11
-8.42
-10.29
-11.69
-12.81
-14.00
-15.66
-18.05
-21.15
-24.71
-28.31
-31.54
-34.17
-36.27
-38.18
-40.48
-43.80
-48.60
-54.96
-62.33
-69.52
-74.78
-76.29
-72.64
-63.37
-49.22
-31.92
-13.72
3.23
17.42
28.15
35.41
39.67
41.53
41.65
40.60
38.93
37.09
35.39
33.96
32.77
31.65
30.47
29.20
27.94
26.91
26.32
26.31
26.82
27.63
28.35
28.61
28.08
26.63
24.34
21.50
18.52
15.78
13.51
11.75
10.26
8.70
6.72
4.18
1.20
-1.81
-4.37
-6.15
-7.20
-7.95
-9.06
-11.08
-14.19
-18.08
-22.08
-25.54
-28.09
-29.81
-31.19
-32.92
-35.70
-39.95
-45.72
-52.49
-59.17
-64.14
-65.66
-62.32
-53.57
-40.03
-23.36
-5.78
10.51
23.92
33.71
39.88
42.98
43.71
42.76
40.70
38.02
35.18
32.57
30.51
29.10
28.24
27.67
27.12
26.42
25.62
24.94
24.61
24.74
25.16
25.50
25.35
24.39
22.58
20.14
17.45
14.83
12.47
10.28
8.01
5.40
2.32
-1.11
-4.57
-7.67
-10.17
-12.14
-13.90
-15.89
-18.48
-21.73
-25.42
-29.08
-32.31
-34.92
-37.02
-39.02
-41.48
-44.95
-49.86
-56.24
-63.58
-70.64
-75.59
-76.49
-71.80
-61.12
-45.40
-26.77
-7.90
8.79
21.78
30.64
35.85
38.40
39.29
39.28
38.89
38.36
37.81
37.32
36.84
36.29
35.47
34.25
32.63
30.80
29.15
28.09
27.88
28.47
29.49
30.39
30.62
29.86
28.09
25.55
22.61
19.64
16.88
14.43
12.28
10.33
8.41
6.34
3.99
1.29
-1.64
-4.58
-7.24
-9.41
-11.08
-12.49
-14.02
-16.04
-18.73
-21.98
-25.46
-28.78
-31.66
-34.07
-36.25
-38.64
-41.80
-46.19
-52.00
-58.89
-65.88
-71.38
-73.55
-70.79
-62.42
-48.91
-31.89
-13.67
3.44
17.74
28.39
35.39
39.30
40.89
40.90
39.95
38.51
36.92
35.40
34.04
32.81
31.59
30.29
28.91
27.54
26.38
25.60
25.32
25.52
26.04
26.59
26.84
26.48
25.35
23.46
21.04
18.43
16.01
13.97
12.29
10.72
8.93
6.63
3.77
0.56
-2.63
-5.43
-7.64
-9.33
-10.79
-12.44
-14.58
-17.26
-20.24
-23.13
-25.54
-27.30
-28.57
-29.76
-31.49
-34.35
-38.75
-44.66
-51.50
-58.05
-62.61
-63.43
-59.21
-49.61
-35.44
-18.52
-1.18
14.42
26.76
35.26
40.09
41.98
41.74
40.15
37.77
35.04
32.26
29.68
27.43
25.56
23.99
22.59
21.31
20.19
19.40
19.13
19.44
20.21
21.10
21.70
21.62
20.70
19.03
16.86
14.44
11.93
9.30
6.48
3.43
0.24
-2.88
-5.69
-8.11
-10.29
-12.54
-15.20
-18.47
-22.23
-26.14
-29.78
-32.81
-35.16
-37.08
-39.03
-41.56
-45.19
-50.21
-56.52
-63.43
-69.66
-73.48
-73.13
-67.42
-56.21
-40.61
-22.67
-4.79
11.01
23.50
32.40
38.09
41.24
42.53
42.49
41.54
40.05
38.34
36.68
35.23
34.06
33.14
32.38
31.68
30.98
30.27
29.62
29.15
28.96
29.00
29.08
28.91
28.18
26.72
24.58
22.00
19.30
16.78
14.57
12.65
10.85
8.95
6.75
4.17
1.26
-1.81
-4.81
-7.50
-9.75
-11.56
-13.11
-14.66
-16.54
-19.03
-22.19
-25.89
-29.75
-33.31
-36.26
-38.57
-40.58
-42.86
-46.10
-50.81
-57.18
-64.81
-72.65
-79.04
-81.98
-79.70
-71.25
-56.98
-38.56
-18.53
0.44
16.35
28.22
36.13
40.81
43.21
44.11
44.06
43.42
42.48
41.45
40.47
39.53
38.50
37.24
35.69
33.98
32.41
31.37
31.12
31.69
32.79
33.96
34.65
34.49
33.33
31.31
28.73
25.98
23.36
20.99
18.86
16.80
14.66
12.39
10.05
7.78
5.67
3.70
1.66
-0.63
-3.26
-6.10
-8.84
-11.17
-12.99
-14.48
-16.02
-18.04
-20.77
-24.11
-27.71
-31.05
-33.67
-35.37
-36.30
-36.91
-37.91
-40.04
-43.86
-49.57
-56.72
-64.20
-70.33
-73.17
-71.06
-63.16
-49.83
-32.64
-13.98
3.62
18.16
28.64
35.08
38.23
39.17
38.87
38.01
36.95
35.86
34.78
33.74
32.77
31.87
31.01
30.12
29.20
28.32
27.67
27.46
27.78
28.51
29.28
29.61
29.10
27.65
25.42
22.82
20.19
17.71
15.29
12.68
9.71
6.41
3.03
-0.11
-2.80
-5.06
-7.16
-9.47
-12.24
-15.50
-19.03
-22.52
-25.70
-28.45
-30.83
-33.03
-35.40
-38.39
-42.48
-47.98
-54.74
-61.78
-67.41
-69.55
-66.48
-57.48
-43.23
-25.65
-7.29
9.47
23.00
32.66
38.65
41.65
42.51
41.96
40.59
38.82
36.97
35.25
33.80
32.59
31.48
30.30
28.90
27.32
25.78
24.62
24.11
24.33
25.05
25.82
26.13
25.59
24.09
21.77
19.02
16.22
13.67
11.43
9.34
7.07
4.33
1.00
-2.74
-6.51
-9.86
-12.51
-14.50
-16.19
-18.05
-20.44
-23.44
-26.84
-30.24
-33.31
-35.93
-38.27
-40.71
-43.75
-47.84
-53.27
-60.03
-67.61
-74.92
-80.32
-81.95
-78.29
-68.70
-53.82
-35.42
-15.99
2.06
16.98
27.99
35.26
39.47
41.48
42.02
41.60
40.59
39.28
37.94
36.75
35.82
35.10
34.47
33.80
33.06
32.36
31.89
31.86
32.33
33.13
33.94
34.33
33.97
32.69
30.55
27.78
24.66
21.51
18.54
15.90
13.61
11.61
9.73
7.77
5.55
3.05
0.37
-2.23
-4.51
-6.36
-7.90
-9.46
-11.45
-14.22
-17.83
-22.05
-26.45
-30.56
-34.07
-36.95
-39.43
-41.98
-45.13
-49.40
-55.08
-62.12
-69.81
-76.84
-81.32
-81.36
-75.67
-64.07
-47.77
-28.96
-10.23
6.27
19.27
28.52
34.52
38.07
39.91
40.57
40.37
39.58
38.43
37.16
35.93
34.75
33.55
32.22
30.75
29.27
28.10
27.55
27.80
28.76
30.04
31.04
31.22
30.25
28.19
25.43
22.49
19.79
17.54
15.63
13.77
11.62
8.98
5.87
2.50
-0.81
-3.76
-6.18
-8.13
-9.81
-11.51
-13.49
-15.84
-18.50
-21.28
-23.97
-26.48
-28.89
-31.49
-34.76
-39.15
-44.91
-51.75
-58.70
-64.18
-66.34
-63.71
-55.63
-42.67
-26.44
-9.12
7.17
20.84
31.15
38.12
42.20
44.03
44.20
43.14
41.24
38.90
36.52
34.49
32.99
32.02
31.35
30.76
30.09
29.42
28.93
28.83
29.18
29.81
30.38
30.52
29.93
28.49
26.30
23.62
20.77
18.09
15.71
13.64
11.68
9.56
7.07
4.16
0.95
-2.29
-5.26
-7.78
-9.87
-11.71
-13.64
-16.02
-19.09
-22.86
-27.09
-31.35
-35.14
-38.13
-40.20
-41.60
-42.87
-44.75
-47.94
-52.87
-59.41
-66.67
-73.06
-76.58
-75.44
-68.64
-56.38
-40.10
-22.00
-4.40
10.92
23.00
31.70
37.41
40.71
42.21
42.40
41.77
40.76
39.73
38.87
38.14
37.34
36.28
34.87
33.26
31.75
30.69
30.35
30.75
31.71
32.85
33.71
33.86
33.08
31.37
28.97
26.29
23.73
21.53
19.72
18.13
16.51
14.67
12.56
10.24
7.87
5.55
3.36
1.25
-0.87
-3.08
-5.37
-7.68
-9.86
-11.80
-13.51
-15.14
-16.95
-19.17
-21.91
-25.05
-28.31
-31.35
-33.91
-35.97
-37.77
-39.81
-42.69
-46.99
-53.04
-60.64
-68.88
-76.15
-80.43
-79.86
-73.36
-61.13
-44.60
-26.08
-8.01
7.67
19.92
28.61
34.22
37.47
39.01
39.38
39.00
38.18
37.21
36.27
35.44
34.68
33.82
32.73
31.36
29.84
28.48
27.64
27.53
28.12
29.07
29.89
30.11
29.52
28.14
26.18
23.90
21.49
19.08
16.78
14.66
12.80
11.17
9.68
8.15
6.41
4.36
2.01
-0.50
-3.01
-5.34
-7.37
-9.10
-10.67
-12.32
-14.31
-16.81
-19.82
-23.13
-26.44
-29.46
-32.03
-34.21
-36.27
-38.65
-41.81
-46.10
-51.54
-57.61
-63.19
-66.68
-66.45
-61.33
-51.11
-36.72
-19.99
-3.14
11.83
23.63
31.84
36.74
39.00
39.40
38.59
37.10
35.38
33.75
32.44
31.58
31.04
30.62
30.06
29.25
28.28
27.40
26.93
27.03
27.64
28.41
28.90
28.70
27.65
25.83
23.57
21.21
18.98
16.91
14.83
12.50
9.73
6.50
2.97
-0.59
-3.90
-6.73
-9.02
-10.81
-12.30
-13.76
-15.45
-17.59
-20.25
-23.37
-26.73
-30.03
-32.97
-35.40
-37.41
-39.39
-42.01
-46.01
-51.86
-59.32
-67.24
-73.63
-76.22
-73.16
-63.79
-48.92
-30.57
-11.40
6.17
20.48
30.86
37.50
41.10
42.49
42.50
41.73
40.65
39.52
38.48
37.50
36.48
35.27
33.72
31.81
29.70
27.68
26.18
25.53
25.87
27.05
28.66
30.12
30.90
30.58
29.05
26.48
23.28
19.98
17.05
14.75
13.03
11.62
10.15
8.32
5.98
3.13
-0.13
-3.67
-7.24
-10.56
-13.31
-15.31
-16.61
-17.59
-18.78
-20.65
-23.37
-26.75
-30.31
-33.58
-36.29
-38.54
-40.76
-43.58
-47.60
-53.20
-60.27
-68.06
-75.12
-79.57
-79.52
-73.75
-62.18
-46.04
-27.50
-9.07
7.18
20.03
29.16
34.94
38.05
39.20
39.04
38.14
36.96
35.85
34.95
34.23
33.54
32.72
31.69
30.48
29.25
28.19
27.51
27.32
27.61
28.26
29.00
29.53
29.58
28.96
27.66
25.78
23.49
20.97
18.37
15.79
13.25
10.77
8.35
6.01
3.81
1.75
-0.16
-2.00
-3.83
-5.67
-7.53
-9.34
-11.07
-12.80
-14.67
-16.88
-19.52
-22.55
-25.69
-28.62
-31.04
-32.94
-34.60
-36.56
-39.45
-43.76
-49.56
-56.37
-63.07
-68.08
-69.70
-66.57
-58.17
-45.07
-28.79
-11.40
5.05
19.02
29.76
37.14
41.46
43.22
42.94
41.20
38.62
35.77
33.12
30.94
29.27
27.99
26.97
26.15
25.57
25.32
25.46
25.95
26.63
27.23
27.44
27.07
26.01
24.32
22.18
19.76
17.19
14.51
11.71
8.76
5.70
2.60
-0.44
-3.35
-6.03
-8.48
-10.75
-12.98
-15.38
-18.12
-21.23
-24.58
-27.86
-30.73
-33.06
-34.99
-37.01
-39.79
-43.98
-49.86
-57.15
-64.83
-71.29
-74.65
-73.21
-66.11
-53.57
-37.02
-18.67
-0.94
14.25
25.84
33.69
38.34
40.63
41.35
41.12
40.34
39.31
38.23
37.21
36.29
35.39
34.38
33.15
31.70
30.16
28.81
27.92
27.63
27.91
28.52
29.07
29.16
28.51
27.04
24.90
22.36
19.73
17.23
14.93
12.78
10.61
8.23
5.52
2.45
-0.86
-4.16
-7.16
-9.62
-11.50
-13.03
-14.62
-16.73
-19.62
-23.27
-27.30
-31.20
-34.50
-36.96
-38.74
-40.30
-42.34
-45.58
-50.59
-57.44
-65.53
-73.43
-79.12
-80.47
-75.93
-65.16
-49.22
-30.30
-11.07
6.14
19.83
29.56
35.70
39.05
40.51
40.80
40.49
39.93
39.35
38.83
38.36
37.81
37.02
35.90
34.44
32.83
31.36
30.35
30.06
30.49
31.41
32.37
32.89
32.61
31.42
29.44
26.92
24.18
21.44
18.84
16.46
14.31
12.35
10.48
8.49
6.17
3.38
0.13
-3.34
-6.69
-9.57
-11.80
-13.45
-14.85
-16.42
-18.49
-21.20
-24.37
-27.70
-30.82
-33.54
-35.89
-38.12
-40.67
-44.03
-48.63
-54.64
-61.72
-68.88
-74.51
-76.71
-73.85
-65.20
-51.32
-33.99
-15.65
1.35
15.35
25.67
32.47
36.39
38.16
38.41
37.62
36.24
34.60
33.01
31.61
30.39
29.24
27.98
26.56
25.09
23.84
23.17
23.38
24.54
26.43
28.54
30.23
30.93
30.39
28.72
26.34
23.74
21.30
19.15
17.14
15.01
12.50
9.52
6.17
2.68
-0.70
-3.78
-6.52
-9.03
-11.51
-14.20
-17.31
-20.86
-24.72
-28.56
-32.05
-34.96
-37.31
-39.39
-41.77
-45.10
-49.91
-56.29
-63.64
-70.62
-75.39
-76.05
-71.30
-60.89
-45.82
-28.02
-9.81
6.77
20.40
30.61
37.57
41.84
44.06
44.87
44.77
44.18
43.36
42.40
41.27
39.92
38.29
36.45
34.60
33.00
31.90
31.43
31.56
32.08
32.63
32.81
32.25
30.71
28.13
24.70
20.79
16.83
13.16
9.97
7.22
4.70
2.19
-0.51
-3.39
-6.27
-8.86
-10.89
-12.30
-13.33
-14.44
-16.18
-18.91
-22.65
-27.00
-31.38
-35.22
-38.27
-40.68
-42.88
-45.50
-49.08
-53.99
-60.25
-67.39
-74.37
-79.62
-81.38
-78.16
-69.41
-55.73
-38.88
-21.16
-4.79
8.78
19.07
26.38
31.46
35.04
37.65
39.56
40.95
41.92
42.58
43.02
43.26
43.25
42.92
42.30
41.54
40.92
40.69
40.94
41.49
41.94
41.78
40.68
38.62
35.89
32.99
30.32
28.12
26.38
24.91
23.50
21.98
20.27
18.35
16.22
13.88
11.32
8.55
5.58
2.47
-0.71
-3.80
-6.69
-9.27
-11.59
-13.84
-16.27
-19.15
-22.58
-26.47
-30.58
-34.54
-38.07
-41.04
-43.59
-46.10
-49.18
-53.45
-59.38
-66.91
-75.27
-82.90
-87.76
-87.85
-81.98
-70.17
-53.80
-35.14
-16.65
-0.31
12.86
22.71
29.68
34.41
37.50
39.42
40.58
41.33
41.91
42.35
42.53
42.20
41.22
39.67
37.86
36.26
35.27
35.07
35.60
36.57
37.64
38.47
38.77
38.36
37.12
35.05
32.29
29.14
25.93
22.96
20.41
18.24
16.28
14.29
12.06
9.51
6.65
3.60
0.52
-2.40
-4.96
-7.02
-8.58
-9.78
-10.95
-12.45
-14.63
-17.59
-21.19
-25.07
-28.81
-32.07
-34.76
-37.05
-39.40
-42.39
-46.58
-52.25
-59.19
-66.47
-72.52
-75.53
-73.88
-66.78
-54.59
-38.71
-21.26
-4.39
10.19
21.53
29.44
34.32
36.84
37.73
37.62
36.96
36.08
35.21
34.52
34.13
34.04
34.15
34.29
34.29
34.14
33.99
34.07
34.54
35.36
36.26
36.75
36.40
34.96
32.48
29.31
25.92
22.75
19.99
17.59
15.30
12.80
9.95
6.78
3.52
0.45
-2.25
-4.58
-6.72
-9.00
-11.72
-15.02
-18.84
-22.92
-26.83
-30.23
-32.96
-35.17
-37.35
-40.16
-44.29
-50.15
-57.61
-65.88
-73.45
-78.39
-78.80
-73.45
-62.21
-46.27
-27.79
-9.33
6.97
19.84
29.04
35.12
38.98
41.47
43.18
44.38
45.15
45.48
45.36
44.82
43.91
42.67
41.22
39.68
38.25
37.12
36.48
36.38
36.73
37.27
37.63
37.46
36.52
34.80
32.44
29.74
26.95
24.22
21.54
18.81
15.96
13.00
10.06
7.32
4.90
2.79
0.83
-1.22
-3.54
-6.14
-8.89
-11.53
-13.86
-15.83
-17.60
-19.50
-21.86
-24.90
-28.60
-32.67
-36.74
-40.42
-43.56
-46.22
-48.79
-51.83
-56.01
-61.78
-69.13
-77.34
-84.90
-89.77
-89.97
-84.27
-72.65
-56.44
-37.88
-19.46
-3.15
9.97
19.76
26.68
31.41
34.56
36.56
37.73
38.40
38.89
39.47
40.20
40.92
41.32
41.11
40.26
39.00
37.81
37.11
37.14
37.82
38.75
39.40
39.31
38.24
36.22
33.47
30.41
27.43
24.81
22.65
20.83
19.10
17.18
14.89
12.25
9.44
6.65
4.06
1.68
-0.60
-2.92
-5.37
-7.90
-10.35
-12.49
-14.21
-15.64
-17.13
-19.13
-21.96
-25.69
-30.01
-34.36
-38.12
-40.91
-42.71
-43.91
-45.25
-47.62
-51.75
-57.99
-66.01
-74.64
-82.00
-85.91
-84.55
-77.05
-63.88
-46.68
-27.79
-9.60
6.11
18.37
27.11
32.78
36.15
37.96
38.80
39.08
39.07
38.88
38.59
38.19
37.68
37.04
36.27
35.43
34.66
34.14
34.00
34.30
34.91
35.57
35.99
35.91
35.22
33.91
32.10
29.93
27.53
25.05
22.60
20.29
18.14
16.14
14.18
12.13
9.89
7.44
4.81
2.12
-0.49
-2.92
-5.12
-7.09
-8.92
-10.73
-12.69
-14.97
-17.66
-20.70
-23.91
-27.02
-29.79
-32.15
-34.25
-36.51
-39.48
-43.67
-49.29
-56.07
-63.09
-68.91
-71.83
-70.36
-63.70
-52.11
-36.88
-20.02
-3.65
10.55
21.68
29.64
34.81
37.77
38.96
38.71
37.34
35.20
32.80
30.61
28.95
27.90
27.31
26.92
26.54
26.11
25.74
25.62
25.89
26.53
27.39
28.14
28.45
28.06
26.85
24.90
22.44
19.73
16.99
14.33
11.74
9.11
6.31
3.26
0.03
-3.20
-6.17
-8.67
-10.66
-12.30
-13.98
-16.11
-18.98
-22.67
-26.97
-31.52
-35.84
-39.59
-42.61
-45.03
-47.27
-49.99
-53.90
-59.48
-66.71
-74.79
-82.19
-86.92
-87.08
-81.45
-69.99
-53.89
-35.23
-16.42
0.48
14.16
24.16
30.73
34.50
36.24
36.74
36.70
36.69
37.06
37.84
38.82
39.62
39.86
39.37
38.23
36.80
35.53
34.83
34.88
35.51
36.26
36.48
35.55
33.16
29.40
24.75
19.88
15.34
11.39
7.95
4.69
1.27
-2.58
-6.88
-11.46
-16.05
-20.39
-24.33
-27.92
-31.46
-35.41
-40.27
-46.36
-53.56
-61.12
-67.65
-71.41
-70.83
-65.03
-54.19
-39.54
-22.98
-6.51
8.29
20.55
30.06
37.02
41.83
44.92
46.69
47.49
47.61
47.23
46.41
45.14
43.43
41.36
39.14
37.04
35.31
34.09
33.34
32.82
32.19
31.11
29.30
26.71
23.48
19.87
16.16
12.49
8.82
4.98
0.76
-3.92
-8.97
-14.15
-19.15
-23.71
-27.73
-31.36
-34.98
-39.16
-44.41
-50.96
-58.43
-65.72
-71.15
-72.88
-69.51
-60.60
-46.92
-30.21
-12.69
3.57
17.17
27.50
34.71
39.36
42.09
43.47
43.86
43.52
42.71
41.63
40.49
39.39
38.31
37.17
35.94
34.68
33.61
32.95
32.87
33.32
34.03
34.63
34.68
33.89
32.19
29.74
26.87
23.94
21.19
18.70
16.42
14.22
12.06
9.97
7.97
6.03
3.99
1.67
-1.05
-4.09
-7.23
-10.16
-12.65
-14.69
-16.42
-18.15
-20.21
-22.78
-25.88
-29.33
-32.82
-36.00
-38.72
-41.04
-43.35
-46.24
-50.31
-55.94
-63.05
-70.85
-77.88
-82.22
-81.98
-75.96
-64.10
-47.64
-28.83
-10.17
6.21
19.11
28.32
34.30
37.82
39.57
40.02
39.50
38.27
36.63
34.93
33.45
32.41
31.84
31.68
31.75
31.92
32.11
32.36
32.73
33.22
33.72
33.97
33.68
32.62
30.73
28.16
25.16
22.03
19.02
16.26
13.76
11.42
9.05
6.39
3.31
-0.17
-3.80
-7.18
-9.98
-12.06
-13.62
-15.13
-17.09
-19.85
-23.43
-27.56
-31.77
-35.62
-38.83
-41.33
-43.30
-45.15
-47.45
-50.83
-55.80
-62.50
-70.42
-78.28
-84.15
-85.96
-82.14
-72.24
-57.17
-38.96
-20.15
-2.98
11.13
21.82
29.49
34.88
38.68
41.32
43.01
43.85
44.00
43.66
43.00
42.12
41.07
39.88
38.66
37.58
36.89
36.78
37.26
38.15
39.10
39.72
39.69
38.82
37.16
34.88
32.26
29.58
27.02
24.67
22.48
20.30
18.04
15.66
13.21
10.78
8.40
5.99
3.41
0.53
-2.66
-5.98
-9.18
-12.03
-14.52
-16.83
-19.27
-22.14
-25.51
-29.26
-33.05
-36.54
-39.51
-41.95
-44.13
-46.53
-49.70
-54.19
-60.25
-67.65
-75.46
-82.06
-85.48
-83.95
-76.54
-63.58
-46.58
-27.86
-9.82
5.73
17.83
26.44
32.07
35.46
37.32
38.21
38.56
38.66
38.72
38.77
38.74
38.46
37.80
36.73
35.39
34.04
33.00
32.50
32.57
33.00
33.40
33.40
32.73
31.36
29.45
27.28
25.02
22.79
20.56
18.26
15.86
13.41
11.01
8.72
6.50
4.22
1.74
-0.96
-3.78
-6.43
-8.66
-10.35
-11.63
-12.84
-14.36
-16.52
-19.38
-22.74
-26.23
-29.47
-32.15
-34.22
-35.88
-37.55
-39.82
-43.30
-48.36
-54.91
-62.21
-68.85
-72.99
-72.86
-67.36
-56.48
-41.38
-24.09
-6.87
8.42
20.67
29.58
35.42
38.75
40.13
40.09
39.10
37.60
35.97
34.46
33.15
31.98
30.85
29.70
28.60
27.74
27.32
27.44
28.03
28.83
29.46
29.53
28.77
27.12
24.72
21.92
19.07
16.44
14.08
11.87
9.55
6.86
3.74
0.32
-3.09
-6.18
-8.77
-10.92
-12.93
-15.17
-17.95
-21.37
-25.29
-29.41
-33.40
-37.04
-40.27
-43.27
-46.41
-50.24
-55.30
-61.86
-69.64
-77.50
-83.60
-85.81
-82.45
-72.97
-58.23
-40.24
-21.47
-4.10
10.48
21.79
29.95
35.40
38.67
40.29
40.78
40.67
40.36
40.04
39.69
39.16
38.27
37.01
35.52
34.03
32.84
32.14
32.01
32.39
33.08
33.80
34.25
34.18
33.42
31.91
29.68
26.82
23.47
19.76
15.84
11.82
7.80
3.94
0.40
-2.63
-4.95
-6.47
-7.19
-7.22
-6.79
-6.16
-5.70
-5.75
-6.65
-8.58
-11.51
-15.24
-19.36
-23.49
-27.35
-30.86
-34.22
-37.79
-42.08
-47.54
-54.46
-62.65
-71.28
-78.84
-83.41
-83.12
-76.87
-64.76
-48.17
-29.43
-11.00
5.13
17.92
27.31
33.89
38.42
41.53
43.60
44.80
45.28
45.17
44.66
43.90
43.00
42.00
40.94
39.91
39.07
38.55
38.45
38.73
39.19
39.56
39.55
38.97
37.76
36.02
33.94
31.68
29.40
27.12
24.81
22.41
19.89
17.24
14.51
11.75
8.95
6.09
3.15
0.16
-2.76
-5.47
-7.85
-9.90
-11.76
-13.70
-15.98
-18.76
-21.99
-25.46
-28.85
-31.86
-34.40
-36.64
-38.99
-42.01
-46.22
-51.95
-59.04
-66.79
-73.88
-78.57
-79.13
-74.32
-63.89
-48.79
-30.94
-12.70
3.82
17.28
27.24
34.03
38.29
40.63
41.44
40.98
39.55
37.52
35.38
33.57
32.37
31.76
31.57
31.56
31.65
31.87
32.35
33.12
34.05
34.81
35.03
34.42
32.91
30.68
28.07
25.37
22.76
20.24
17.61
14.63
11.17
7.32
3.33
-0.45
-3.77
-6.61
-9.18
-11.82
-14.80
-18.13
-21.66
-25.12
-28.26
-30.99
-33.37
-35.56
-37.86
-40.65
-44.37
-49.37
-55.73
-62.91
-69.75
-74.52
-75.44
-71.19
-61.49
-47.24
-30.30
-12.92
2.90
15.86
25.52
32.14
36.30
38.59
39.48
39.34
38.50
37.35
36.23
35.36
34.74
34.25
33.68
32.97
32.19
31.60
31.48
32.00
33.10
34.53
35.84
36.59
36.44
35.28
33.19
30.45
27.40
24.32
21.42
18.70
16.05
13.29
10.20
6.69
2.80
-1.24
-5.07
-8.36
-10.93
-12.89
-14.59
-16.53
-19.18
-22.67
-26.86
-31.29
-35.43
-38.88
-41.58
-43.79
-46.08
-49.15
-53.60
-59.75
-67.33
-75.38
-82.29
-86.07
-84.89
-77.71
-64.74
-47.45
-28.20
-9.52
6.62
19.17
28.04
33.82
37.34
39.41
40.63
41.39
41.92
42.29
42.44
42.21
41.50
40.28
38.72
37.07
35.64
34.66
34.26
34.39
34.89
35.49
35.85
35.66
34.75
33.12
30.97
28.55
26.06
23.55
20.98
18.25
15.40
12.57
9.95
7.70
5.80
4.07
2.28
0.27
-1.98
-4.33
-6.58
-8.61
-10.45
-12.32
-14.59
-17.53
-21.24
-25.52
-29.89
-33.83
-36.99
-39.33
-41.20
-43.25
-46.19
-50.61
-56.66
-63.94
-71.34
-77.19
-79.62
-77.07
-68.89
-55.59
-38.85
-20.93
-4.03
10.28
21.36
29.32
34.66
37.97
39.69
40.13
39.55
38.33
36.85
35.48
34.44
33.71
33.10
32.40
31.51
30.53
29.77
29.55
30.05
31.10
32.29
33.05
32.96
31.89
29.96
27.53
24.95
22.46
20.14
17.94
15.71
13.28
10.55
7.51
4.24
0.93
-2.21
-5.09
-7.76
-10.39
-13.22
-16.38
-19.80
-23.26
-26.44
-29.08
-31.08
-32.62
-34.08
-36.04
-39.12
-43.79
-50.13
-57.54
-64.76
-70.01
-71.42
-67.70
-58.53
-44.84
-28.49
-11.81
3.19
15.22
23.89
29.58
32.98
34.82
35.60
35.62
35.08
34.18
33.10
31.98
30.85
29.65
28.32
26.91
25.63
24.81
24.71
25.40
26.64
27.96
28.79
28.71
27.61
25.67
23.25
20.76
18.45
16.41
14.57
12.84
11.15
9.44
7.61
5.49
2.96
0.00
-3.19
-6.29
-8.95
-10.99
-12.48
-13.77
-15.25
-17.26
-19.92
-23.15
-26.69
-30.21
-33.43
-36.19
-38.54
-40.75
-43.23
-46.50
-50.99
-56.88
-63.88
-71.10
-77.01
-79.71
-77.54
-69.60
-56.28
-39.24
-20.91
-3.71
10.62
21.40
28.82
33.62
36.55
38.24
39.07
39.38
39.42
39.41
39.43
39.40
39.15
38.51
37.43
36.09
34.84
34.15
34.39
35.70
37.86
40.31
42.34
43.29
42.81
40.90
37.88
34.24
30.47
26.93
23.76
20.96
18.41
15.95
13.50
11.07
8.75
6.63
4.72
2.89
0.88
-1.54
-4.44
-7.62
-10.70
-13.29
-15.14
-16.31
-17.13
-18.09
-19.69
-22.24
-25.73
-29.87
-34.13
-37.99
-41.07
-43.35
-45.19
-47.27
-50.36
-55.06
-61.48
-68.98
-76.14
-81.06
-81.83
-77.13
-66.72
-51.57
-33.62
-15.22
1.49
15.06
24.85
30.97
34.07
34.97
34.57
33.64
32.72
32.13
31.91
31.93
31.98
31.87
31.48
30.83
30.02
29.27
28.86
28.99
29.78
31.06
32.49
33.60
33.97
33.33
31.67
29.19
26.20
23.08
20.14
17.60
15.55
13.91
12.56
11.27
9.86
8.19
6.19
3.88
1.35
-1.26
-3.73
-5.92
-7.75
-9.29
-10.77
-12.45
-14.51
-16.95
-19.63
-22.33
-24.89
-27.28
-29.67
-32.36
-35.75
-40.19
-45.86
-52.50
-59.35
-65.07
-68.02
-66.70
-60.26
-48.89
-33.82
-17.00
-0.56
13.76
24.96
32.79
37.54
39.82
40.20
39.21
37.33
34.99
32.63
30.58
29.04
27.97
27.24
26.64
26.11
25.67
25.42
25.44
25.67
26.00
26.22
26.22
25.93
25.31
24.36
23.07
21.41
19.38
17.05
14.49
11.83
9.22
6.77
4.58
2.66
0.95
-0.69
-2.39
-4.21
-6.15
-8.12
-10.03
-11.83
-13.59
-15.42
-17.50
-19.98
-22.87
-26.09
-29.40
-32.51
-35.23
-37.56
-39.79
-42.46
-46.17
-51.40
-58.18
-65.92
-73.42
-78.97
-80.77
-77.49
-68.63
-54.85
-37.77
-19.56
-2.33
12.36
23.76
31.84
37.03
39.99
41.34
41.60
41.15
40.32
39.29
38.18
37.04
35.83
34.52
33.13
31.75
30.55
29.76
29.58
30.05
31.01
32.07
32.73
32.58
31.46
29.50
27.01
24.38
21.88
19.61
17.52
15.51
13.47
11.36
9.22
7.13
5.20
3.49
2.00
0.61
-0.87
-2.63
-4.71
-7.04
-9.38
-11.49
-13.22
-14.66
-16.07
-17.76
-19.98
-22.78
-26.00
-29.31
-32.35
-34.86
-36.79
-38.39
-40.17
-42.78
-46.77
-52.34
-59.08
-65.88
-71.09
-72.89
-69.82
-61.32
-47.95
-31.27
-13.43
3.46
17.79
28.70
36.06
40.21
41.78
41.51
40.11
38.25
36.40
34.80
33.44
32.19
30.89
29.55
28.31
27.39
26.93
26.93
27.27
27.72
28.05
28.08
27.71
26.89
25.61
23.92
21.94
19.81
17.71
15.78
14.07
12.54
11.06
9.45
7.54
5.26
2.67
-0.03
-2.60
-4.83
-6.61
-8.02
-9.28
-10.69
-12.54
-14.97
-17.90
-21.08
-24.14
-26.78
-28.88
-30.54
-32.09
-33.99
-36.73
-40.72
-46.11
-52.56
-59.10
-64.18
-65.98
-62.93
-54.40
-40.96
-24.40
-7.12
8.61
21.20
30.07
35.48
38.13
38.80
38.14
36.61
34.63
32.52
30.59
29.06
27.97
27.25
26.70
26.17
25.58
24.98
24.50
24.30
24.47
24.94
25.48
25.73
25.37
24.16
22.10
19.38
16.39
13.52
11.05
9.02
7.27
5.48
3.37
0.82
-2.04
-4.94
-7.56
-9.75
-11.52
-13.10
-14.83
-16.97
-19.64
-22.80
-26.21
-29.60
-32.69
-35.34
-37.60
-39.73
-42.19
-45.49
-50.07
-56.01
-62.81
-69.27
-73.69
-74.23
-69.53
-59.25
-44.30
-26.63
-8.63
7.54
20.49
29.80
35.79
39.23
40.91
41.51
41.51
41.19
40.75
40.24
39.61
38.76
37.54
35.95
34.13
32.39
31.07
30.40
30.42
30.96
31.64
32.07
31.91
31.02
29.43
27.36
25.05
22.74
20.53
18.38
16.19
13.86
11.39
8.88
6.50
4.36
2.44
0.58
-1.41
-3.62
-5.97
-8.24
-10.21
-11.78
-13.11
-14.54
-16.44
-19.02
-22.27
-25.89
-29.48
-32.71
-35.43
-37.70
-39.77
-42.01
-44.89
-48.89
-54.33
-61.13
-68.54
-75.09
-78.84
-77.98
-71.43
-59.35
-43.15
-25.08
-7.56
7.50
19.11
27.16
32.17
34.98
36.36
36.92
37.03
36.90
36.60
36.14
35.51
34.68
33.65
32.48
31.30
30.33
29.77
29.78
30.33
31.22
32.10
32.57
32.33
31.27
29.52
27.35
25.05
22.86
20.83
18.91
17.01
15.04
13.02
11.02
9.12
7.36
5.66
3.89
1.94
-0.25
-2.61
-4.97
-7.13
-8.97
-10.51
-11.92
-13.50
-15.54
-18.18
-21.33
-24.70
-27.92
-30.70
-33.00
-35.03
-37.21
-40.04
-43.93
-49.11
-55.40
-62.14
-68.13
-71.70
-71.16
-65.37
-54.22
-38.85
-21.37
-4.24
10.54
21.87
29.65
34.47
37.18
38.44
38.66
38.04
36.76
35.07
33.33
31.82
30.75
30.10
29.74
29.49
29.28
29.18
29.39
30.03
31.07
32.21
32.99
33.00
32.06
30.26
27.90
25.29
22.67
20.11
17.63
15.23
12.97
10.90
8.96
6.97
4.66
1.84
-1.48
-5.06
-8.52
-11.52
-13.91
-15.86
-17.78
-20.11
-23.18
-27.00
-31.29
-35.62
-39.58
-42.97
-45.88
-48.71
-52.06
-56.56
-62.64
-70.28
-78.79
-86.71
-92.07
-92.85
-87.62
-76.14
-59.54
-40.01
-20.17
-2.32
12.13
22.72
29.84
34.23
36.74
38.06
38.74
39.13
39.45
39.79
40.11
40.27
40.18
39.81
39.25
38.68
38.30
38.26
38.60
39.22
39.90
40.34
40.28
39.58
38.24
36.44
34.40
32.34
30.35
28.38
26.32
24.06
21.59
18.97
16.27
13.47
10.50
7.28
3.86
0.50
-2.48
-4.84
-6.57
-8.02
-9.69
-12.06
-15.31
-19.29
-23.57
-27.68
-31.36
-34.61
-37.73
-41.18
-45.45
-50.96
-57.88
-66.07
-74.80
-82.77
-88.19
-89.15
-84.25
-73.14
-56.80
-37.37
-17.55
0.22
14.41
24.62
31.43
35.86
38.90
41.16
42.90
44.10
44.70
44.70
44.17
43.22
41.94
40.44
38.88
37.47
36.44
35.97
36.05
36.42
36.66
36.31
35.07
32.96
30.28
27.55
25.24
23.65
22.78
22.33
21.91
21.15
19.82
17.86
15.33
12.41
9.27
6.10
3.09
0.37
-1.99
-3.99
-5.77
-7.53
-9.55
-12.06
-15.18
-18.87
-22.86
-26.81
-30.35
-33.29
-35.70
-37.92
-40.51
-44.05
-48.98
-55.41
-62.95
-70.58
-76.73
-79.58
-77.60
-70.03
-57.29
-40.87
-22.92
-5.63
9.40
21.33
30.12
36.13
39.88
41.82
42.31
41.69
40.36
38.74
37.23
36.12
35.49
35.24
35.21
35.21
35.18
35.18
35.30
35.60
35.96
36.12
35.76
34.66
32.75
30.17
27.14
23.91
20.65
17.40
14.12
10.76
7.31
3.85
0.45
-2.80
-5.91
-8.99
-12.16
-15.57
-19.25
-23.10
-26.91
-30.47
-33.63
-36.49
-39.39
-42.86
-47.45
-53.52
-60.88
-68.66
-75.32
-79.01
-78.09
-71.68
-60.05
-44.56
-27.24
-10.24
4.73
16.73
25.58
31.65
35.65
38.27
40.11
41.57
42.79
43.73
44.23
44.14
43.43
42.25
40.88
39.62
38.77
38.48
38.77
39.49
40.39
41.12
41.34
40.78
39.33
37.05
34.16
30.93
27.66
24.57
21.79
19.36
17.18
15.08
12.83
10.21
7.14
3.67
-0.00
-3.60
-6.88
-9.70
-12.05
-14.08
-16.06
-18.29
-21.07
-24.55
-28.63
-33.02
-37.31
-41.14
-44.43
-47.43
-50.69
-54.89
-60.58
-67.82
-76.01
-83.82
-89.38
-90.81
-86.77
-76.94
-62.27
-44.67
-26.47
-9.74
4.22
14.99
22.90
28.59
32.75
35.89
38.30
40.19
41.65
42.79
43.61
44.07
44.06
43.51
42.43
41.01
39.54
38.38
37.79
37.85
38.40
39.10
39.52
39.27
38.15
36.17
33.57
30.73
28.02
25.65
23.64
21.81
19.89
17.70
15.23
12.62
10.16
8.02
6.25
4.67
3.02
1.11
-1.10
-3.44
-5.71
-7.72
-9.52
-11.31
-13.41
-16.05
-19.24
-22.72
-26.10
-29.03
-31.35
-33.20
-35.02
-37.36
-40.71
-45.36
-51.27
-57.92
-64.30
-68.97
-70.40
-67.28
-59.11
-46.42
-30.71
-14.13
1.25
13.95
23.35
29.63
33.46
35.55
36.45
36.48
35.82
34.64
33.16
31.64
30.31
29.33
28.74
28.46
28.32
28.22
28.08
27.92
27.82
27.76
27.65
27.27
26.46
25.11
23.24
21.02
18.60
16.12
13.66
11.27
9.01
6.92
5.01
3.22
1.47
-0.33
-2.17
-4.00
-5.70
-7.24
-8.66
-10.13
-11.87
-14.06
-16.77
-19.92
-23.30
-26.62
-29.63
-32.20
-34.41
-36.54
-39.07
-42.51
-47.27
-53.41
-60.48
-67.41
-72.63
-74.44
-71.53
-63.48
-51.02
-35.84
-20.10
-5.74
6.03
14.90
21.27
25.83
29.20
31.74
33.56
34.73
35.38
35.70
35.92
36.12
36.25
36.20
35.86
35.27
34.61
34.13
34.05
34.41
35.04
35.60
35.69
34.99
33.45
31.21
28.59
25.96
23.57
21.51
19.67
17.83
15.80
13.48
10.96
8.43
6.14
4.22
2.67
1.29
-0.16
-1.90
-3.99
-6.36
-8.80
-11.12
-13.17
-14.96
-16.62
-18.36
-20.38
-22.77
-25.43
-28.15
-30.66
-32.82
-34.75
-36.78
-39.44
-43.24
-48.48
-55.09
-62.48
-69.48
-74.52
-75.90
-72.36
-63.53
-50.17
-34.07
-17.49
-2.49
9.61
18.43
24.31
27.98
30.20
31.54
32.43
33.13
33.81
34.46
34.99
35.21
34.97
34.29
33.30
32.27
31.48
31.12
31.25
31.82
32.62
33.40
33.85
33.69
32.75
31.03
28.72
26.16
23.74
21.72
20.13
18.80
17.42
15.70
13.56
11.14
8.71
6.57
4.89
3.63
2.63
1.66
0.51
-0.91
-2.64
-4.63
-6.78
-8.95
-10.98
-12.77
-14.35
-15.90
-17.65
-19.80
-22.40
-25.27
-28.16
-30.81
-33.08
-35.07
-36.99
-39.20
-42.11
-46.06
-51.19
-57.16
-63.08
-67.47
-68.62
-65.20
-56.74
-44.01
-28.77
-13.23
0.69
11.82
19.89
25.24
28.45
30.04
30.43
29.96
28.98
27.87
26.90
26.16
25.58
25.00
24.31
23.53
22.86
22.54
22.75
23.48
24.54
25.58
26.19
26.05
25.02
23.20
20.85
18.29
15.81
13.59
11.65
9.93
8.25
6.44
4.41
2.15
-0.23
-2.57
-4.75
-6.78
-8.82
-11.13
-13.85
-16.95
-20.18
-23.14
-25.52
-27.31
-28.81
-30.59
-33.27
-37.28
-42.65
-48.89
-54.96
-59.40
-60.71
-57.71
-50.03
-38.27
-23.96
-9.10
4.41
15.26
23.00
27.89
30.60
31.81
32.06
31.64
30.74
29.51
28.12
26.69
25.31
24.00
22.73
21.51
20.41
19.54
19.01
18.85
18.97
19.11
18.96
18.21
16.74
14.64
12.18
9.67
7.29
5.00
2.56
-0.34
-3.85
-7.93
-12.27
-16.46
-20.16
-23.24
-25.84
-28.38
-31.40
-35.43
-40.74
-47.05
-53.49
-58.60
-60.77
-58.72
-51.98
-41.14
-27.65
-13.38
-0.06
11.14
19.72
25.78
29.72
32.07
33.27
33.67
33.49
32.89
31.97
30.77
29.36
27.80
26.18
24.56
23.00
21.55
20.24
19.11
18.17
17.39
16.67
15.82
14.57
12.64
9.80
6.00
1.39
-3.63
-8.54
-12.90
-16.50
-19.47
-22.24
-25.39
-29.46
-34.72
-41.09
-48.01
-54.50
-59.24
-60.86
-58.30
-51.19
-40.08
-26.33
-11.78
1.82
13.23
21.95
28.13
32.26
34.92
36.50
37.28
37.43
37.12
36.47
35.55
34.34
32.82
31.00
29.10
27.44
26.39
26.15
26.70
27.79
29.08
30.20
30.84
30.82
30.00
28.35
25.96
23.08
20.02
17.16
14.74
12.88
11.55
10.58
9.78
8.93
7.87
6.54
4.91
3.04
1.03
-1.08
-3.27
-5.56
-7.97
-10.44
-12.89
-15.19
-17.25
-19.06
-20.71
-22.33
-24.09
-26.12
-28.51
-31.26
-34.29
-37.42
-40.42
-43.13
-45.49
-47.67
-50.02
-53.05
-57.21
-62.65
-68.98
-75.12
-79.47
-80.27
-76.18
-66.82
-52.96
-36.36
-19.21
-3.50
9.51
19.40
26.44
31.19
34.21
35.92
36.62
36.56
36.05
35.39
34.81
34.39
34.09
33.83
33.54
33.24
33.06
33.12
33.47
34.05
34.68
35.10
35.07
34.38
32.95
30.87
28.35
25.68
23.17
21.01
19.20
17.62
16.03
14.25
12.18
9.87
7.48
5.18
3.12
1.32
-0.23
-1.63
-2.97
-4.33
-5.71
-7.11
-8.49
-9.81
-11.12
-12.52
-14.20
-16.38
-19.16
-22.50
-26.14
-29.71
-32.85
-35.40
-37.48
-39.46
-41.90
-45.32
-50.08
-56.14
-62.95
-69.35
-73.80
-74.65
-70.72
-61.67
-48.24
-32.07
-15.24
0.33
13.34
23.25
30.19
34.65
37.22
38.40
38.60
38.15
37.34
36.40
35.49
34.70
34.03
33.48
33.08
32.89
32.97
33.41
34.20
35.26
36.43
37.42
37.92
37.63
36.35
34.10
31.15
27.92
24.82
22.12
19.77
17.47
14.86
11.69
7.96
3.95
0.07
-3.33
-6.08
-8.25
-10.13
-12.08
-14.43
-17.36
-20.83
-24.63
-28.42
-31.86
-34.76
-37.14
-39.29
-41.71
-44.98
-49.59
-55.69
-62.95
-70.41
-76.60
-79.75
-78.34
-71.56
-59.66
-43.88
-26.19
-8.68
6.92
19.52
28.79
34.92
38.48
40.13
40.57
40.36
39.93
39.52
39.22
38.96
38.66
38.26
37.79
37.33
37.00
36.88
37.02
37.39
37.85
38.21
38.26
37.87
36.93
35.50
33.68
31.58
29.29
26.87
24.33
21.69
18.98
16.23
13.55
10.99
8.59
6.31
4.09
1.84
-0.51
-2.98
-5.55
-8.13
-10.68
-13.18
-15.70
-18.36
-21.32
-24.62
-28.19
-31.82
-35.20
-38.10
-40.46
-42.55
-44.93
-48.32
-53.29
-59.98
-67.90
-75.79
-81.93
-84.46
-81.93
-73.73
-60.31
-43.16
-24.41
-6.28
9.42
21.70
30.41
36.05
39.43
41.33
42.34
42.85
43.05
43.03
42.82
42.40
41.74
40.85
39.82
38.84
38.11
37.77
37.88
38.32
38.85
39.17
38.95
38.02
36.35
34.10
31.57
29.03
26.67
24.50
22.40
20.22
17.88
15.40
12.84
10.29
7.74
5.14
2.47
-0.27
-3.00
-5.64
-8.14
-10.51
-12.79
-15.05
-17.34
-19.74
-22.32
-25.15
-28.21
-31.36
-34.35
-36.88
-38.82
-40.31
-41.86
-44.20
-48.04
-53.71
-60.87
-68.39
-74.51
-77.22
-74.88
-66.81
-53.58
-36.91
-19.16
-2.61
11.13
21.41
28.40
32.75
35.19
36.28
36.43
35.97
35.21
34.46
33.92
33.57
33.26
32.77
31.99
31.02
30.13
29.59
29.56
29.98
30.59
31.06
31.07
30.47
29.25
27.55
25.56
23.45
21.37
19.39
17.52
15.71
13.86
11.85
9.56
6.95
4.03
0.97
-2.02
-4.70
-6.91
-8.69
-10.23
-11.89
-13.94
-16.54
-19.62
-22.88
-25.99
-28.67
-30.85
-32.69
-34.58
-37.00
-40.44
-45.24
-51.41
-58.43
-65.20
-70.15
-71.61
-68.30
-59.85
-46.93
-31.18
-14.68
0.56
13.16
22.50
28.71
32.34
34.04
34.33
33.56
31.99
29.92
27.77
26.00
24.96
24.80
25.34
26.24
27.14
27.79
28.14
28.27
28.27
28.16
27.86
27.22
26.11
24.42
22.07
19.07
15.48
11.49
7.41
3.63
0.52
-1.72
-3.17
-4.12
-5.04
-6.37
-8.37
-10.99
-13.99
-17.01
-19.78
-22.28
-24.78
-27.71
-31.57
-36.71
-43.16
-50.51
-57.86
-63.82
-66.82
-65.49
-59.14
-48.05
-33.50
-17.43
-1.82
11.77
22.56
30.47
35.85
39.18
40.87
41.23
40.55
39.18
37.48
35.74
34.15
32.74
31.48
30.34
29.37
28.67
28.36
28.54
29.21
30.23
31.34
32.18
32.35
31.57
29.75
27.06
23.84
20.50
17.33
14.40
11.58
8.64
5.41
1.89
-1.74
-5.22
-8.34
-11.09
-13.63
-16.30
-19.38
-22.99
-27.02
-31.15
-35.01
-38.33
-41.06
-43.41
-45.81
-48.85
-53.03
-58.60
-65.36
-72.45
-78.42
-81.51
-80.10
-73.32
-61.35
-45.49
-27.80
-10.44
4.87
17.24
26.53
33.15
37.60
40.32
41.67
41.95
41.57
40.97
40.47
40.14
39.82
39.24
38.27
37.04
35.91
35.24
35.21
35.69
36.35
36.80
36.80
36.27
35.28
33.95
32.38
30.62
28.66
26.51
24.13
21.54
18.79
15.99
13.27
10.73
8.46
6.48
4.71
3.05
1.30
-0.73
-3.14
-5.93
-8.90
-11.78
-14.36
-16.59
-18.63
-20.82
-23.41
-26.50
-29.90
-33.29
-36.37
-39.08
-41.59
-44.33
-47.81
-52.49
-58.59
-65.88
-73.54
-80.14
-83.89
-83.13
-76.88
-65.26
-49.56
-31.86
-14.37
1.13
13.66
23.05
29.65
33.98
36.56
37.82
38.16
37.98
37.60
37.25
36.98
36.70
36.28
35.64
34.85
34.09
33.54
33.36
33.57
34.08
34.70
35.21
35.40
35.10
34.19
32.64
30.53
28.07
25.47
22.96
20.66
18.54
16.47
14.27
11.81
9.08
6.17
3.31
0.72
-1.42
-3.13
-4.57
-6.07
-7.96
-10.46
-13.56
-17.02
-20.42
-23.33
-25.48
-26.83
-27.66
-28.49
-30.01
-32.87
-37.47
-43.78
-51.11
-58.15
-63.18
-64.49
-60.93
-52.33
-39.65
-24.72
-9.65
3.73
14.31
21.81
26.55
29.11
30.10
29.99
29.17
28.00
26.83
25.95
25.44
25.24
25.19
25.13
25.05
25.01
25.18
25.66
26.49
27.56
28.60
29.26
29.20
28.18
26.20
23.51
20.46
17.49
14.88
12.72
10.83
8.92
6.66
3.83
0.47
-3.17
-6.64
-9.53
-11.63
-13.07
-14.27
-15.81
-18.11
-21.32
-25.19
-29.29
-33.08
-36.24
-38.70
-40.68
-42.66
-45.26
-49.09
-54.48
-61.26
-68.61
-75.02
-78.65
-77.84
-71.64
-60.25
-44.94
-27.71
-10.69
4.42
16.66
25.84
32.31
36.62
39.31
40.81
41.44
41.46
41.14
40.69
40.24
39.82
39.36
38.77
38.03
37.20
36.49
36.10
36.19
36.69
37.36
37.81
37.71
36.86
35.29
33.17
30.73
28.17
25.61
23.10
20.62
18.16
15.68
13.07
10.28
7.26
4.09
0.95
-1.91
-4.31
-6.19
-7.69
-9.13
-10.83
-13.07
-15.92
-19.29
-22.94
-26.60
-30.06
-33.20
-36.07
-38.85
-41.90
-45.64
-50.47
-56.55
-63.59
-70.66
-76.26
-78.70
-76.51
-69.04
-56.75
-41.14
-24.29
-8.34
5.18
15.56
22.90
27.80
30.98
32.98
34.13
34.53
34.29
33.53
32.49
31.33
30.21
29.15
28.18
27.32
26.71
26.52
26.86
27.72
28.90
30.09
30.93
31.17
30.69
29.53
27.81
25.71
23.42
21.08
18.83
16.74
14.76
12.77
10.61
8.12
5.35
2.47
-0.20
-2.38
-3.97
-5.11
-6.15
-7.50
-9.44
-12.01
-15.01
-18.11
-20.96
-23.35
-25.28
-26.89
-28.51
-30.53
-33.38
-37.38
-42.59
-48.63
-54.58
-59.04
-60.45
-57.57
-49.94
-38.11
-23.58
-8.34
5.71
17.22
25.66
31.18
34.31
35.67
35.72
34.80
33.24
31.40
29.63
28.22
27.24
26.56
25.96
25.29
24.58
24.02
23.83
24.11
24.76
25.48
25.93
25.81
25.02
23.60
21.75
19.71
17.71
15.90
14.27
12.66
10.85
8.62
5.90
2.81
-0.38
-3.36
-5.90
-7.98
-9.77
-11.57
-13.70
-16.35
-19.51
-22.96
-26.37
-29.44
-32.05
-34.30
-36.57
-39.39
-43.26
-48.46
-54.87
-61.84
-68.12
-72.09
-72.14
-67.19
-57.12
-42.97
-26.64
-10.40
3.86
15.00
22.87
27.93
30.97
32.70
33.60
33.95
33.96
33.78
33.50
33.14
32.60
31.78
30.64
29.28
27.98
27.04
26.71
27.07
28.01
29.23
30.32
30.85
30.53
29.29
27.32
24.96
22.58
20.38
18.36
16.38
14.26
11.96
9.60
7.37
5.40
3.68
2.02
0.21
-1.83
-3.96
-5.89
-7.32
-8.10
-8.40
-8.63
-9.32
-10.89
-13.50
-16.97
-20.87
-24.68
-27.96
-30.49
-32.33
-33.81
-35.46
-37.92
-41.79
-47.33
-54.25
-61.53
-67.55
-70.38
-68.42
-60.99
-48.63
-33.00
-16.39
-1.03
11.50
20.53
26.24
29.27
30.45
30.53
30.06
29.45
28.91
28.52
28.26
27.97
27.50
26.79
25.90
25.01
24.39
24.23
24.62
25.52
26.70
27.84
28.56
28.55
27.63
25.86
23.49
20.90
18.45
16.37
14.68
13.21
11.76
10.13
8.29
6.33
4.42
2.71
1.25
-0.05
-1.37
-2.91
-4.72
-6.75
-8.79
-10.64
-12.16
-13.40
-14.58
-15.97
-17.80
-20.11
-22.78
-25.57
-28.20
-30.50
-32.43
-34.10
-35.76
-37.78
-40.54
-44.40
-49.38
-55.08
-60.47
-64.05
-64.21
-59.76
-50.43
-37.01
-21.20
-5.09
9.42
21.07
29.41
34.61
37.21
37.90
37.30
35.94
34.26
32.58
31.08
29.84
28.80
27.85
26.90
25.94
25.10
24.58
24.58
25.15
26.16
27.26
28.03
28.10
27.23
25.44
22.92
20.01
17.04
14.26
11.79
9.58
7.46
5.21
2.68
-0.10
-2.98
-5.73
-8.13
-10.14
-11.86
-13.52
-15.38
-17.60
-20.17
-22.94
-25.67
-28.14
-30.25
-32.08
-33.90
-36.16
-39.34
-43.75
-49.36
-55.56
-61.18
-64.63
-64.38
-59.39
-49.61
-36.04
-20.53
-5.17
8.27
18.79
26.19
30.90
33.58
34.82
35.03
34.45
33.33
31.94
30.55
29.34
28.32
27.35
26.25
24.96
23.60
22.50
22.01
22.34
23.41
24.84
26.00
26.29
25.30
23.02
19.78
16.16
12.77
10.00
7.90
6.23
4.56
2.52
-0.03
-2.92
-5.82
-8.34
-10.24
-11.58
-12.68
-13.98
-15.91
-18.68
-22.21
-26.14
-30.03
-33.42
-36.09
-38.11
-39.83
-41.86
-44.87
-49.39
-55.59
-62.98
-70.34
-75.94
-77.90
-74.82
-66.27
-53.04
-36.86
-19.91
-4.20
8.91
18.90
25.96
30.67
33.69
35.51
36.48
36.78
36.61
36.17
35.67
35.24
34.84
34.35
33.64
32.72
31.78
31.15
31.09
31.68
32.72
33.83
34.56
34.60
33.79
32.18
29.93
27.29
24.52
21.87
19.45
17.29
15.32
13.40
11.38
9.14
6.66
3.95
1.13
-1.68
-4.33
-6.73
-8.88
-10.87
-12.88
-15.12
-17.72
-20.71
-23.92
-27.09
-29.97
-32.44
-34.61
-36.79
-39.51
-43.31
-48.55
-55.18
-62.56
-69.44
-74.12
-74.93
-70.68
-61.16
-47.25
-30.75
-13.84
1.56
14.16
23.51
29.89
33.89
36.21
37.38
37.76
37.53
36.84
35.85
34.74
33.71
32.86
32.25
31.83
31.53
31.38
31.46
31.90
32.75
33.86
34.88
35.35
34.89
33.40
31.09
28.43
25.87
23.69
21.88
20.14
18.11
15.54
12.37
8.81
5.22
1.99
-0.58
-2.41
-3.67
-4.77
-6.20
-8.37
-11.45
-15.30
-19.51
-23.54
-26.98
-29.63
-31.63
-33.42
-35.62
-38.85
-43.54
-49.63
-56.44
-62.63
-66.46
-66.24
-60.93
-50.50
-36.06
-19.57
-3.25
11.01
22.06
29.68
34.30
36.69
37.64
37.72
37.29
36.60
35.88
35.31
34.99
34.94
34.99
34.95
34.69
34.23
33.73
33.44
33.52
34.00
34.68
35.21
35.23
34.48
32.91
30.67
28.05
25.32
22.67
20.15
17.75
15.46
13.29
11.25
9.31
7.35
5.22
2.85
0.26
-2.40
-4.91
-7.10
-8.96
-10.63
-12.38
-14.54
-17.33
-20.78
-24.73
-28.84
-32.69
-35.98
-38.67
-41.03
-43.57
-46.91
-51.52
-57.57
-64.68
-71.88
-77.71
-80.45
-78.64
-71.56
-59.53
-43.91
-26.74
-10.16
4.19
15.44
23.49
28.77
31.94
33.63
34.37
34.52
34.39
34.15
33.93
33.80
33.78
33.80
33.75
33.53
33.12
32.59
32.14
31.97
32.13
32.48
32.71
32.43
31.44
29.78
27.69
25.54
23.57
21.85
20.23
18.48
16.36
13.83
11.02
8.21
5.78
3.94
2.74
1.95
1.19
0.07
-1.65
-3.97
-6.63
-9.29
-11.64
-13.50
-14.92
-16.10
-17.40
-19.13
-21.48
-24.42
-27.67
-30.86
-33.63
-35.83
-37.66
-39.57
-42.14
-45.90
-51.03
-57.17
-63.36
-68.12
-69.84
-67.20
-59.71
-47.89
-33.18
-17.54
-2.85
9.50
18.84
25.19
28.98
30.85
31.45
31.27
30.70
29.97
29.21
28.50
27.91
27.49
27.25
27.18
27.22
27.33
27.53
27.88
28.39
28.98
29.42
29.44
28.82
27.47
25.49
23.08
20.52
17.98
15.60
13.44
11.48
9.71
8.11
6.64
5.24
3.85
2.39
0.82
-0.87
-2.62
-4.31
-5.86
-7.28
-8.70
-10.36
-12.42
-14.90
-17.62
-20.27
-22.59
-24.48
-26.09
-27.80
-30.05
-33.33
-37.93
-43.84
-50.59
-57.12
-61.96
-63.48
-60.44
-52.47
-40.25
-25.42
-10.07
3.85
15.02
22.97
28.02
30.88
32.38
33.09
33.31
33.11
32.48
31.50
30.37
29.29
28.40
27.71
27.15
26.66
26.27
26.12
26.30
26.78
27.33
27.60
27.26
26.13
24.27
21.91
19.35
16.84
14.50
12.32
10.17
7.92
5.49
2.89
0.23
-2.38
-4.87
-7.31
-9.85
-12.62
-15.72
-19.09
-22.53
-25.79
-28.59
-30.70
-31.91
-32.07
-31.15
-29.27
-26.67
-23.73
-20.90
-18.66
-17.47
-17.82
-20.15
-24.77
-31.65
-40.26
-49.44
-57.47
-62.48
-62.88
-57.89
-47.80
-33.98
-18.43
-3.27
9.81
19.87
26.75
30.88
32.97
33.76
33.85
33.67
33.44
33.26
33.09
32.83
32.37
31.61
30.60
29.47
28.46
27.86
27.87
28.51
29.55
30.64
31.34
31.34
30.52
28.95
26.90
24.66
22.48
20.51
18.78
17.20
15.60
13.81
11.71
9.32
6.81
4.45
2.48
0.97
-0.20
-1.32
-2.67
-4.38
-6.41
-8.55
-10.56
-12.32
-13.85
-15.34
-17.08
-19.29
-22.03
-25.22
-28.62
-31.92
-34.91
-37.52
-39.89
-42.39
-45.50
-49.69
-55.19
-61.73
-68.41
-73.75
-76.02
-73.71
-66.14
-53.69
-37.84
-20.71
-4.45
9.29
19.67
26.69
30.89
33.08
33.99
34.14
33.81
33.15
32.28
31.30
30.33
29.47
28.71
28.01
27.38
26.86
26.64
26.90
27.70
28.87
30.02
30.70
30.53
29.36
27.30
24.69
21.92
19.38
17.31
15.77
14.61
13.55
12.22
10.38
7.95
5.06
2.02
-0.84
-3.27
-5.19
-6.75
-8.22
-9.95
-12.17
-14.97
-18.19
-21.55
-24.68
-27.36
-29.59
-31.59
-33.82
-36.77
-40.89
-46.37
-52.95
-59.79
-65.48
-68.32
-66.81
-60.17
-48.71
-33.80
-17.46
-1.80
11.62
21.95
29.07
33.28
35.11
35.09
33.82
31.86
29.78
28.01
26.75
25.96
25.42
24.94
24.40
23.86
23.48
23.43
23.80
24.52
25.39
26.10
26.38
26.00
24.86
23.02
20.64
17.96
15.21
12.53
9.95
7.41
4.73
1.79
-1.43
-4.80
-8.00
-10.66
-12.47
-13.39
-13.65
-13.80
-14.47
-16.16
-19.05
-22.91
-27.19
-31.30
-34.81
-37.71
-40.36
-43.42
-47.54
-53.17
-60.36
-68.60
-76.80
-83.37
-86.56
-84.89
-77.67
-65.32
-49.34
-31.87
-15.09
-0.59
10.95
19.64
26.04
30.79
34.35
36.99
38.83
40.06
40.88
41.51
42.02
42.38
42.45
42.12
41.46
40.73
40.33
40.57
41.55
43.04
44.57
45.57
45.62
44.59
42.63
40.09
37.31
34.49
31.73
29.02
26.35
23.74
21.24
18.85
16.52
14.19
11.81
9.37
6.90
4.38
1.83
-0.74
-3.28
-5.75
-8.18
-10.68
-13.44
-16.68
-20.48
-24.70
-29.02
-33.06
-36.49
-39.22
-41.44
-43.68
-46.68
-51.15
-57.49
-65.40
-73.74
-80.67
-84.07
-82.20
-74.29
-60.80
-43.36
-24.23
-5.71
10.41
23.12
32.18
37.97
41.18
42.53
42.70
42.23
41.55
40.92
40.50
40.27
40.10
39.83
39.38
38.81
38.32
38.16
38.48
39.30
40.41
41.48
42.16
42.15
41.30
39.59
37.17
34.29
31.22
28.23
25.48
22.99
20.69
18.44
16.10
13.64
11.09
8.55
6.10
3.83
1.74
-0.19
-1.99
-3.73
-5.50
-7.44
-9.71
-12.41
-15.52
-18.88
-22.24
-25.34
-28.04
-30.39
-32.63
-35.14
-38.41
-42.84
-48.59
-55.31
-62.03
-67.18
-69.01
-66.10
-57.95
-45.25
-29.67
-13.35
1.81
14.53
24.32
31.29
35.80
38.25
39.01
38.50
37.14
35.42
33.76
32.43
31.50
30.89
30.45
30.02
29.56
29.14
28.93
29.11
29.71
30.61
31.45
31.84
31.45
30.16
28.10
25.56
22.82
20.06
17.38
14.79
12.28
9.87
7.54
5.24
2.90
0.45
-2.10
-4.59
-6.86
-8.77
-10.35
-11.82
-13.54
-15.88
-19.01
-22.81
-26.86
-30.67
-33.87
-36.42
-38.63
-41.12
-44.52
-49.29
-55.49
-62.67
-69.82
-75.52
-78.15
-76.33
-69.38
-57.59
-42.26
-25.37
-8.98
5.24
16.45
24.54
29.93
33.24
35.04
35.79
35.81
35.40
34.82
34.25
33.79
33.37
32.88
32.21
31.36
30.51
29.95
29.94
30.58
31.68
32.87
33.69
33.82
33.13
31.77
29.99
28.04
26.05
24.04
21.95
19.74
17.39
14.91
12.37
9.88
7.56
5.55
3.89
2.48
1.12
-0.45
-2.42
-4.76
-7.28
-9.66
-11.63
-13.15
-14.42
-15.80
-17.64
-20.16
-23.30
-26.83
-30.37
-33.58
-36.30
-38.59
-40.75
-43.29
-46.74
-51.51
-57.58
-64.38
-70.70
-74.92
-75.40
-70.95
-61.33
-47.40
-30.92
-14.08
1.12
13.38
22.25
28.04
31.44
33.18
33.89
34.00
33.83
33.61
33.46
33.42
33.38
33.18
32.73
32.06
31.30
30.68
30.36
30.40
30.71
31.10
31.31
31.11
30.41
29.20
27.64
25.90
24.09
22.18
20.09
17.78
15.26
12.74
10.43
8.43
6.71
5.09
3.38
1.50
-0.54
-2.58
-4.48
-6.13
-7.57
-8.87
-10.20
-11.74
-13.59
-15.80
-18.26
-20.77
-23.14
-25.26
-27.24
-29.34
-31.99
-35.56
-40.27
-46.05
-52.33
-58.08
-61.85
-62.17
-58.02
-49.26
-36.76
-22.20
-7.57
5.45
15.84
23.32
28.17
30.94
32.15
32.23
31.52
30.27
28.72
27.13
25.70
24.54
23.70
23.09
22.59
22.10
21.62
21.26
21.13
21.29
21.66
22.02
22.09
21.63
20.50
18.72
16.48
14.07
11.79
9.85
8.24
6.73
4.99
2.76
0.03
-2.93
-5.71
-7.95
-9.56
-10.76
-11.98
-13.62
-15.92
-18.82
-22.03
-25.18
-27.90
-30.03
-31.60
-32.91
-34.48
-36.90
-40.74
-46.22
-52.99
-60.04
-65.79
-68.45
-66.58
-59.54
-47.81
-32.93
-17.01
-2.14
10.13
19.13
24.99
28.37
30.10
30.88
31.16
31.15
30.92
30.52
30.00
29.38
28.71
27.97
27.16
26.27
25.36
24.54
23.98
23.78
23.92
24.28
24.54
24.39
23.59
22.04
19.81
17.09
14.07
10.94
7.82
4.84
2.14
-0.14
-1.88
-3.07
-3.83
-4.36
-4.85
-5.46
-6.30
-7.42
-8.88
-10.76
-13.09
-15.85
-18.88
-21.98
-24.90
-27.53
-29.89
-32.19
-34.78
-38.03
-42.28
-47.67
-54.00
-60.58
-66.27
-69.60
-69.16
-64.07
-54.33
-40.93
-25.60
-10.31
3.22
13.94
21.56
26.43
29.23
30.72
31.48
31.87
32.08
32.13
32.03
31.80
31.45
30.98
30.43
29.85
29.33
29.03
29.07
29.49
30.17
30.86
31.22
31.00
30.12
28.64
26.80
24.82
22.88
21.02
19.20
17.34
15.40
13.41
11.46
9.64
7.95
6.30
4.60
2.77
0.88
-0.93
-2.52
-3.83
-5.02
-6.37
-8.21
-10.75
-13.93
-17.47
-20.93
-23.92
-26.24
-27.93
-29.31
-30.83
-33.04
-36.41
-41.14
-47.00
-53.19
-58.34
-60.87
-59.38
-53.21
-42.69
-29.12
-14.34
-0.24
11.77
20.98
27.38
31.37
33.50
34.29
34.17
33.45
32.43
31.30
30.19
29.11
28.00
26.80
25.54
24.39
23.59
23.34
23.71
24.56
25.62
26.54
27.02
26.80
25.76
23.90
21.39
18.56
15.76
13.26
11.12
9.18
7.17
4.92
2.43
-0.14
-2.59
-4.83
-6.94
-9.10
-11.49
-14.13
-16.92
-19.68
-22.21
-24.44
-26.40
-28.31
-30.51
-33.42
-37.42
-42.63
-48.70
-54.72
-59.29
-60.89
-58.35
-51.25
-40.20
-26.65
-12.47
0.57
11.29
19.25
24.67
28.06
30.04
31.09
31.51
31.49
31.17
30.61
29.82
28.83
27.67
26.44
25.31
24.45
23.96
23.90
24.24
24.90
25.76
26.60
27.12
27.01
26.04
24.14
21.49
18.43
15.32
12.46
9.99
7.92
6.18
4.66
3.18
1.57
-0.33
-2.57
-5.03
-7.46
-9.62
-11.35
-12.76
-14.16
-15.91
-18.29
-21.27
-24.54
-27.64
-30.18
-32.00
-33.32
-34.61
-36.53
-39.65
-44.29
-50.35
-57.17
-63.60
-68.06
-68.96
-65.17
-56.42
-43.51
-28.17
-12.53
1.51
12.73
20.81
26.05
29.11
30.66
31.23
31.24
31.02
30.85
30.86
31.01
31.09
30.83
30.07
28.85
27.46
26.26
25.60
25.65
26.35
27.44
28.53
29.21
29.19
28.39
26.88
24.87
22.61
20.27
17.95
15.69
13.50
11.41
9.44
7.62
5.92
4.28
2.62
0.84
-1.16
-3.39
-5.76
-8.10
-10.16
-11.76
-12.89
-13.78
-14.79
-16.30
-18.49
-21.29
-24.36
-27.25
-29.61
-31.36
-32.73
-34.20
-36.35
-39.64
-44.26
-49.91
-55.73
-60.43
-62.54
-60.78
-54.51
-43.95
-30.28
-15.25
-0.79
11.59
21.08
27.59
31.57
33.59
34.17
33.67
32.37
30.60
28.76
27.26
26.37
26.09
26.20
26.36
26.28
25.89
25.29
24.73
24.45
24.53
24.84
25.11
25.01
24.31
22.92
20.92
18.55
16.08
13.73
11.61
9.71
7.92
6.09
4.12
2.00
-0.16
-2.20
-3.99
-5.52
-6.97
-8.64
-10.79
-13.53
-16.71
-20.02
-23.07
-25.60
-27.57
-29.15
-30.77
-32.92
-36.12
-40.69
-46.58
-53.17
-59.24
-63.19
-63.42
-58.92
-49.58
-36.40
-21.13
-5.83
7.73
18.46
26.04
30.76
33.28
34.28
34.34
33.84
33.00
31.98
30.84
29.61
28.30
26.92
25.55
24.31
23.41
23.01
23.22
23.94
24.98
26.03
26.81
27.08
26.68
25.56
23.75
21.37
18.65
15.90
13.36
11.20
9.39
7.74
6.02
4.04
1.71
-0.86
-3.48
-5.91
-7.98
-9.65
-10.98
-12.19
-13.57
-15.37
-17.76
-20.72
-24.05
-27.43
-30.55
-33.23
-35.49
-37.58
-39.92
-43.03
-47.33
-53.00
-59.74
-66.65
-72.27
-74.86
-72.86
-65.47
-53.00
-36.85
-19.12
-2.06
12.56
23.76
31.39
35.90
38.00
38.45
37.88
36.78
35.53
34.42
33.59
33.07
32.75
32.45
32.01
31.40
30.72
30.21
30.10
30.50
31.31
32.26
32.96
33.08
32.41
30.97
28.93
26.56
24.12
21.78
19.58
17.46
15.32
13.12
10.93
8.81
6.86
5.04
3.22
1.22
-1.11
-3.76
-6.55
-9.19
-11.40
-13.08
-14.39
-15.70
-17.43
-19.88
-23.07
-26.73
-30.42
-33.70
-36.36
-38.49
-40.48
-42.88
-46.24
-50.93
-56.94
-63.75
-70.28
-74.98
-76.20
-72.61
-63.68
-50.00
-33.15
-15.33
1.25
14.92
24.90
31.32
34.95
36.75
37.54
37.82
37.78
37.41
36.73
35.83
34.83
33.88
33.01
32.21
31.44
30.75
30.27
30.14
30.43
31.04
31.67
31.98
31.68
30.65
28.99
26.91
24.65
22.36
20.08
17.80
15.43
12.97
10.42
7.84
5.28
2.78
0.38
-1.87
-3.90
-5.67
-7.19
-8.58
-10.05
-11.84
-14.10
-16.79
-19.64
-22.33
-24.56
-26.31
-27.78
-29.44
-31.82
-35.40
-40.42
-46.76
-53.80
-60.41
-65.05
-66.12
-62.47
-53.76
-40.73
-25.01
-8.66
6.40
18.82
28.01
34.02
37.35
38.62
38.42
37.23
35.39
33.18
30.83
28.53
26.46
24.74
23.45
22.65
22.36
22.62
23.43
24.69
26.17
27.49
28.27
28.20
27.20
25.38
23.01
20.42
17.88
15.54
13.40
11.35
9.16
6.63
3.67
0.33
-3.16
-6.48
-9.35
-11.67
-13.58
-15.39
-17.46
-20.05
-23.19
-26.68
-30.19
-33.44
-36.28
-38.83
-41.38
-44.38
-48.27
-53.40
-59.81
-67.13
-74.46
-80.37
-83.12
-81.17
-73.67
-60.86
-44.13
-25.66
-7.78
7.69
19.80
28.52
34.39
38.15
40.38
41.46
41.63
41.11
40.21
39.26
38.47
37.87
37.33
36.68
35.87
35.05
34.48
34.43
34.91
35.73
36.48
36.75
36.27
34.99
33.02
30.58
27.90
25.17
22.51
19.98
17.54
15.12
12.70
10.26
7.89
5.65
3.53
1.42
-0.84
-3.35
-6.04
-8.78
-11.41
-13.91
-16.42
-19.19
-22.38
-26.02
-29.89
-33.69
-37.16
-40.22
-43.01
-45.91
-49.40
-53.97
-59.93
-67.20
-75.10
-82.26
-86.80
-86.82
-81.01
-69.18
-52.46
-33.02
-13.42
4.13
18.30
28.73
35.82
40.34
43.03
44.47
45.04
45.01
44.64
44.12
43.57
42.98
42.24
41.25
40.01
38.71
37.64
37.13
37.32
38.13
39.21
40.08
40.29
39.60
37.98
35.62
32.83
29.90
26.99
24.16
21.36
18.53
15.70
12.95
10.40
8.14
6.12
4.17
2.10
-0.18
-2.62
-5.02
-7.17
-8.98
-10.53
-12.13
-14.11
-16.74
-20.08
-23.93
-27.91
-31.59
-34.67
-37.11
-39.14
-41.25
-44.00
-47.88
-53.04
-59.19
-65.40
-70.24
-72.06
-69.41
-61.56
-48.84
-32.62
-14.97
1.90
16.25
27.13
34.41
38.59
40.39
40.57
39.73
38.32
36.69
35.08
33.68
32.55
31.68
30.98
30.32
29.68
29.14
28.88
29.09
29.82
30.88
31.90
32.40
32.03
30.66
28.41
25.59
22.55
19.56
16.72
14.04
11.42
8.78
6.09
3.39
0.72
-1.91
-4.57
-7.46
-10.76
-14.59
-18.86
-23.24
-27.34
-30.82
-33.58
-35.86
-38.21
-41.33
-45.82
-51.97
-59.39
-67.00
-73.06
-75.60
-73.04
-64.78
-51.47
-34.87
-17.33
-1.06
12.45
22.60
29.63
34.16
36.89
38.38
39.02
39.06
38.68
38.05
37.29
36.43
35.43
34.24
32.88
31.49
30.32
29.66
29.71
30.46
31.64
32.80
33.42
33.13
31.75
29.44
26.55
23.51
20.65
18.12
15.79
13.41
10.68
7.45
3.78
-0.05
-3.67
-6.80
-9.32
-11.43
-13.46
-15.78
-18.62
-22.00
-25.71
-29.49
-33.09
-36.43
-39.60
-42.85
-46.58
-51.21
-57.06
-64.08
-71.56
-78.12
-81.86
-80.95
-74.29
-62.04
-45.63
-27.37
-9.69
5.57
17.52
26.15
32.02
35.82
38.13
39.35
39.82
39.83
39.66
39.51
39.42
39.31
39.01
38.37
37.40
36.27
35.30
34.80
34.93
35.54
36.28
36.66
36.31
35.11
33.25
31.09
28.95
26.96
25.05
23.02
20.72
18.12
15.31
12.47
9.72
7.12
4.68
2.39
0.27
-1.64
-3.38
-5.05
-6.79
-8.81
-11.24
-14.16
-17.53
-21.23
-24.99
-28.54
-31.60
-34.05
-36.00
-37.82
-40.09
-43.41
-48.24
-54.68
-62.32
-70.19
-76.77
-80.28
-79.10
-72.31
-60.09
-43.78
-25.53
-7.74
7.67
19.63
28.02
33.35
36.45
38.06
38.69
38.63
38.04
37.08
35.93
34.78
33.79
33.02
32.47
32.09
31.84
31.73
31.83
32.16
32.68
33.23
33.59
33.48
32.73
31.29
29.27
26.86
24.32
21.87
19.62
17.61
15.77
13.98
12.12
10.08
7.82
5.35
2.75
0.15
-2.29
-4.49
-6.45
-8.31
-10.29
-12.56
-15.18
-18.05
-20.92
-23.52
-25.66
-27.41
-29.06
-31.09
-34.04
-38.35
-44.06
-50.74
-57.31
-62.23
-63.79
-60.68
-52.39
-39.59
-23.89
-7.49
7.56
19.79
28.62
34.22
37.22
38.34
38.21
37.23
35.71
33.88
31.96
30.08
28.34
26.76
25.34
24.10
23.12
22.51
22.40
22.83
23.69
24.72
25.56
25.86
25.36
24.01
21.97
19.53
17.03
14.68
12.53
10.47
8.25
5.70
2.76
-0.42
-3.55
-6.33
-8.59
-10.33
-11.76
-13.18
-14.90
-17.14
-19.92
-23.09
-26.35
-29.36
-31.87
-33.83
-35.48
-37.29
-39.83
-43.67
-49.06
-55.82
-63.17
-69.70
-73.66
-73.32
-67.60
-56.50
-41.17
-23.69
-6.37
8.85
20.88
29.47
34.97
38.04
39.34
39.41
38.70
37.56
36.22
34.84
33.41
31.90
30.32
28.73
27.28
26.10
25.31
24.92
24.88
25.05
25.27
25.32
25.00
24.15
22.72
20.79
18.52
16.12
13.77
11.51
9.32
7.14
4.96
2.82
0.81
-1.02
-2.73
-4.42
-6.19
-8.04
-9.85
-11.49
-12.91
-14.23
-15.70
-17.55
-19.86
-22.58
-25.47
-28.29
-30.86
-33.09
-35.01
-36.82
-38.88
-41.69
-45.72
-51.16
-57.64
-64.09
-68.86
-70.15
-66.56
-57.60
-43.96
-27.33
-9.92
6.14
19.32
28.95
35.17
38.64
40.19
40.52
40.14
39.30
38.22
37.05
35.90
34.79
33.63
32.29
30.68
28.90
27.24
26.05
25.65
26.08
27.14
28.39
29.37
29.68
29.12
27.67
25.48
22.83
19.99
17.20
14.59
12.22
10.08
8.13
6.32
4.57
2.77
0.82
-1.29
-3.50
-5.66
-7.63
-9.32
-10.81
-12.26
-13.86
-15.75
-17.99
-20.47
-23.00
-25.36
-27.38
-29.06
-30.61
-32.47
-35.18
-39.18
-44.50
-50.69
-56.68
-61.01
-62.12
-58.82
-50.63
-38.07
-22.57
-6.15
9.11
21.64
30.66
36.20
38.85
39.34
38.33
36.27
33.52
30.42
27.38
24.77
22.84
21.60
20.89
20.41
19.98
19.56
19.28
19.31
19.71
20.36
20.96
21.11
20.53
19.11
17.02
14.59
12.21
10.12
8.38
6.78
5.05
2.94
0.32
-2.71
-5.92
-9.01
-11.77
-14.12
-16.15
-18.09
-20.21
-22.70
-25.56
-28.57
-31.40
-33.72
-35.46
-36.90
-38.63
-41.37
-45.72
-51.82
-59.20
-66.67
-72.53
-74.93
-72.36
-64.19
-50.91
-34.10
-15.96
1.22
15.69
26.55
33.71
37.70
39.29
39.29
38.35
36.99
35.57
34.29
33.21
32.23
31.22
30.10
28.88
27.69
26.76
26.27
26.33
26.89
27.78
28.74
29.47
29.73
29.35
28.24
26.46
24.17
21.60
18.93
16.30
13.76
11.32
9.03
6.92
5.00
3.18
1.29
-0.85
-3.36
-6.13
-8.90
-11.36
-13.34
-14.93
-16.46
-18.31
-20.76
-23.82
-27.25
-30.66
-33.71
-36.27
-38.50
-40.86
-43.92
-48.23
-54.07
-61.20
-68.81
-75.45
-79.33
-78.70
-72.42
-60.46
-44.00
-25.20
-6.56
9.81
22.64
31.67
37.34
40.43
41.67
41.61
40.69
39.26
37.70
36.27
35.09
34.09
33.07
31.84
30.39
28.87
27.57
26.78
26.68
27.23
28.15
29.05
29.52
29.27
28.25
26.58
24.54
22.35
20.19
18.09
16.00
13.92
11.83
9.79
7.80
5.80
3.66
1.29
-1.34
-4.10
-6.77
-9.13
-11.10
-12.78
-14.45
-16.42
-18.93
-22.05
-25.63
-29.38
-32.95
-36.02
-38.44
-40.27
-41.83
-43.64
-46.32
-50.41
-56.05
-62.80
-69.46
-74.24
-75.20
-70.90
-60.93
-46.18
-28.64
-10.74
5.34
18.21
27.47
33.48
36.94
38.54
38.82
38.11
36.74
34.97
33.10
31.35
29.81
28.48
27.32
26.33
25.62
25.34
25.62
26.46
27.65
28.82
29.52
29.43
28.39
26.51
24.03
21.31
18.71
16.50
14.79
13.49
12.35
11.00
9.15
6.71
3.78
0.71
-2.16
-4.57
-6.44
-7.91
-9.29
-10.93
-13.15
-16.10
-19.70
-23.62
-27.38
-30.55
-33.00
-34.94
-36.94
-39.67
-43.75
-49.47
-56.63
-64.47
-71.63
-76.32
-76.73
-71.59
-60.70
-45.13
-26.94
-8.59
7.82
21.01
30.61
36.94
40.61
42.25
42.44
41.69
40.45
39.09
37.84
36.74
35.67
34.47
33.07
31.57
30.18
29.18
28.82
29.18
30.14
31.35
32.38
32.79
32.32
30.97
28.94
26.53
24.03
21.61
19.30
17.01
14.69
12.36
10.22
8.51
7.40
6.90
6.77
6.63
6.08
4.83
2.86
0.32
-2.51
-5.38
-8.19
-11.03
-14.10
-17.60
-21.58
-25.86
-30.10
-33.90
-37.03
-39.54
-41.83
-44.54
-48.33
-53.64
-60.44
-68.13
-75.50
-80.88
-82.51
-79.05
-70.03
-56.16
-39.21
-21.50
-5.27
8.01
17.83
24.63
29.28
32.65
35.27
37.33
38.78
39.57
39.82
39.69
39.34
38.80
37.98
36.79
35.29
33.75
32.58
32.13
32.51
33.52
34.78
35.85
36.45
36.51
36.08
35.27
34.13
32.65
30.80
28.58
26.02
23.23
20.32
17.44
14.69
12.16
9.84
7.67
5.51
3.20
0.67
-2.05
-4.83
-7.48
-9.86
-11.95
-13.87
-15.80
-17.94
-20.40
-23.18
-26.17
-29.17
-32.01
-34.68
-37.34
-40.35
-44.19
-49.24
-55.51
-62.51
-69.14
-73.79
-74.80
-70.88
-61.61
-47.72
-30.93
-13.45
2.58
15.75
25.51
32.13
36.27
38.60
39.61
39.55
38.66
37.19
35.51
33.97
32.76
31.87
31.10
30.28
29.38
28.56
28.14
28.40
29.38
30.84
32.27
33.16
33.12
32.09
30.25
28.00
25.69
23.57
21.73
20.11
18.53
16.81
14.78
12.34
9.51
6.46
3.41
0.54
-2.09
-4.66
-7.43
-10.67
-14.49
-18.72
-22.99
-26.86
-30.05
-32.55
-34.69
-37.01
-40.16
-44.69
-50.84
-58.33
-66.20
-72.86
-76.44
-75.22
-68.35
-56.13
-40.09
-22.54
-5.86
8.12
18.55
25.54
29.81
32.26
33.59
34.22
34.30
33.88
33.04
31.95
30.87
29.98
29.38
29.04
28.86
28.78
28.82
29.10
29.68
30.49
31.29
31.73
31.49
30.45
28.71
26.51
24.15
21.81
19.51
17.21
14.89
12.58
10.35
8.22
6.15
4.08
1.91
-0.35
-2.61
-4.77
-6.76
-8.59
-10.39
-12.30
-14.50
-17.15
-20.30
-23.90
-27.76
-31.56
-35.01
-37.93
-40.40
-42.75
-45.54
-49.31
-54.43
-60.85
-68.00
-74.73
-79.49
-80.62
-76.87
-67.83
-54.15
-37.44
-19.82
-3.36
10.49
21.08
28.51
33.32
36.17
37.67
38.24
38.23
37.92
37.51
37.10
36.68
36.16
35.45
34.55
33.64
32.93
32.69
33.02
33.82
34.81
35.63
35.92
35.51
34.39
32.70
30.66
28.43
26.13
23.81
21.44
19.02
16.56
14.06
11.55
9.03
6.45
3.81
1.09
-1.62
-4.23
-6.62
-8.78
-10.78
-12.82
-15.13
-17.90
-21.15
-24.78
-28.57
-32.26
-35.71
-38.85
-41.77
-44.69
-47.91
-51.85
-56.91
-63.32
-70.92
-78.92
-85.86
-89.88
-89.21
-82.75
-70.58
-53.97
-35.04
-16.16
0.76
14.64
25.25
32.98
38.44
42.13
44.41
45.54
45.77
45.43
44.85
44.25
43.72
43.16
42.40
41.36
40.15
39.02
38.27
38.04
38.26
38.60
38.68
38.16
36.91
35.04
32.73
30.21
27.65
25.13
22.72
20.42
18.18
15.84
13.23
10.24
6.95
3.65
0.71
-1.60
-3.25
-4.53
-5.87
-7.71
-10.24
-13.36
-16.77
-20.08
-23.00
-25.42
-27.53
-29.70
-32.45
-36.27
-41.43
-47.81
-54.69
-60.86
-64.73
-64.80
-60.14
-50.70
-37.40
-21.94
-6.24
7.97
19.57
28.13
33.73
36.81
37.89
37.48
36.09
34.18
32.16
30.30
28.77
27.60
26.73
26.12
25.73
25.59
25.71
26.07
26.56
26.98
27.10
26.74
25.82
24.40
22.65
20.70
18.64
16.43
13.92
11.03
7.75
4.23
0.72
-2.57
-5.57
-8.35
-11.13
-14.09
-17.32
-20.71
-24.04
-27.07
-29.69
-31.94
-34.09
-36.53
-39.73
-44.09
-49.86
-56.89
-64.46
-71.27
-75.55
-75.59
-70.29
-59.65
-44.88
-28.01
-11.26
3.62
15.70
24.86
31.43
35.88
38.57
39.83
40.01
39.55
38.90
38.35
37.92
37.45
36.70
35.59
34.26
33.04
32.32
32.33
33.10
34.35
35.63
36.40
36.25
35.06
32.97
30.36
27.66
25.18
23.05
21.18
19.39
17.54
15.50
13.27
10.87
8.31
5.62
2.82
-0.04
-2.86
-5.54
-7.95
-9.97
-11.64
-13.14
-14.79
-16.96
-19.87
-23.45
-27.40
-31.24
-34.62
-37.42
-39.82
-42.23
-45.17
-49.14
-54.49
-61.27
-69.03
-76.68
-82.50
-84.57
-81.36
-72.29
-58.09
-40.64
-22.34
-5.41
8.68
19.41
27.01
32.08
35.29
37.17
38.15
38.61
38.86
39.10
39.38
39.58
39.51
39.05
38.22
37.22
36.35
35.89
35.98
36.61
37.55
38.49
39.03
38.91
37.97
36.29
34.06
31.55
29.01
26.56
24.20
21.86
19.44
16.90
14.30
11.78
9.50
7.55
5.89
4.36
2.73
0.85
-1.33
-3.68
-6.03
-8.17
-9.99
-11.50
-12.88
-14.38
-16.29
-18.78
-21.81
-25.14
-28.39
-31.26
-33.62
-35.65
-37.78
-40.56
-44.47
-49.76
-56.27
-63.32
-69.71
-73.88
-74.24
-69.68
-59.99
-46.02
-29.54
-12.68
2.60
15.02
24.13
30.20
33.89
35.87
36.69
36.68
36.02
34.93
33.62
32.35
31.27
30.39
29.65
28.98
28.41
28.07
28.16
28.78
29.88
31.20
32.35
32.86
32.38
30.73
28.06
24.80
21.52
18.73
16.67
15.17
13.79
12.03
9.58
6.46
2.97
-0.48
-3.49
-5.90
-7.78
-9.37
-11.06
-13.18
-15.93
-19.25
-22.91
-26.55
-29.89
-32.80
-35.39
-37.97
-40.94
-44.74
-49.66
-55.64
-62.08
-67.76
-71.00
-70.18
-64.31
-53.46
-38.88
-22.60
-6.82
6.74
17.24
24.67
29.58
32.70
34.61
35.64
35.92
35.50
34.53
33.24
31.91
30.76
29.89
29.21
28.58
27.91
27.25
26.77
26.64
26.88
27.34
27.67
27.52
26.69
25.16
23.12
20.83
18.54
16.41
14.50
12.79
11.17
9.53
7.73
5.68
3.35
0.81
-1.84
-4.49
-7.03
-9.41
-11.64
-13.78
-15.93
-18.23
-20.80
-23.67
-26.79
-29.96
-32.95
-35.63
-37.97
-40.20
-42.70
-46.00
-50.49
-56.28
-62.93
-69.38
-74.01
-75.10
-71.33
-62.30
-48.77
-32.43
-15.49
0.02
12.74
22.17
28.54
32.54
34.95
36.43
37.40
38.07
38.50
38.67
38.55
38.09
37.29
36.18
34.89
33.61
32.61
32.12
32.30
33.09
34.22
35.28
35.80
35.46
34.13
31.97
29.32
26.56
24.03
21.91
20.19
18.73
17.31
15.74
13.94
11.98
10.02
8.27
6.84
5.71
4.69
3.50
1.90
-0.20
-2.67
-5.23
-7.60
-9.57
-11.16
-12.60
-14.22
-16.30
-18.99
-22.20
-25.68
-29.11
-32.24
-34.95
-37.32
-39.62
-42.23
-45.60
-50.10
-55.80
-62.35
-68.78
-73.60
-75.12
-72.01
-63.72
-50.86
-35.02
-18.33
-2.83
10.04
19.67
26.19
30.19
32.39
33.38
33.65
33.51
33.17
32.77
32.36
31.89
31.26
30.42
29.39
28.32
27.46
27.05
27.20
27.84
28.71
29.44
29.71
29.34
28.28
26.66
24.65
22.45
20.23
18.10
16.12
14.29
12.58
10.93
9.28
7.60
5.85
4.04
2.16
0.23
-1.72
-3.63
-5.39
-6.92
-8.22
-9.39
-10.64
-12.25
-14.38
-17.00
-19.83
-22.50
-24.66
-26.19
-27.29
-28.43
-30.21
-33.18
-37.64
-43.49
-50.12
-56.33
-60.57
-61.28
-57.35
-48.59
-35.85
-20.86
-5.67
7.89
18.66
26.25
30.90
33.18
33.73
33.12
31.81
30.16
28.47
26.91
25.58
24.43
23.38
22.38
21.44
20.69
20.29
20.38
20.98
21.96
23.06
23.94
24.26
23.82
22.54
20.53
18.04
15.39
12.82
10.49
8.42
6.51
4.66
2.73
0.64
-1.63
-4.07
-6.57
-8.98
-11.08
-12.71
-13.86
-14.70
-15.58
-16.89
-18.87
-21.54
-24.63
-27.73
-30.49
-32.75
-34.64
-36.56
-39.07
-42.67
-47.66
-53.92
-60.78
-66.98
-70.85
-70.75
-65.58
-55.21
-40.64
-23.75
-6.78
8.32
20.28
28.67
33.76
36.28
37.05
36.85
36.25
35.59
35.01
34.49
33.92
33.19
32.20
30.96
29.55
28.16
27.02
26.39
26.37
26.90
27.73
28.45
28.68
28.19
26.94
25.07
22.83
20.43
18.04
15.75
13.58
11.52
9.56
7.70
5.97
4.39
2.94
1.53
0.01
-1.77
-3.90
-6.29
-8.70
-10.83
-12.52
-13.84
-15.15
-16.85
-19.25
-22.37
-25.91
-29.45
-32.62
-35.27
-37.53
-39.74
-42.35
-45.86
-50.61
-56.63
-63.34
-69.51
-73.38
-73.16
-67.65
-56.79
-41.79
-24.75
-7.97
6.69
18.24
26.54
32.04
35.34
37.02
37.52
37.18
36.32
35.18
33.92
32.60
31.23
29.87
28.63
27.69
27.22
27.28
27.77
28.50
29.26
29.84
30.09
29.89
29.15
27.88
26.15
24.15
22.11
20.21
18.50
16.92
15.32
13.58
11.67
9.67
7.70
5.87
4.20
2.58
0.86
-1.08
-3.31
-5.79
-8.35
-10.79
-12.96
-14.81
-16.45
-18.09
-20.00
-22.34
-25.08
-28.04
-30.93
-33.56
-35.95
-38.33
-41.13
-44.71
-49.28
-54.67
-60.27
-65.01
-67.55
-66.51
-60.94
-50.68
-36.56
-20.28
-3.92
10.64
22.23
30.52
35.80
38.65
39.59
39.01
37.28
34.87
32.36
30.31
29.02
28.46
28.32
28.20
27.86
27.31
26.77
26.53
26.78
27.52
28.55
29.53
30.07
29.88
28.81
26.92
24.40
21.57
18.70
16.02
13.59
11.34
9.11
6.74
4.12
1.32
-1.48
-4.01
-6.10
-7.73
-9.11
-10.61
-12.59
-15.24
-18.48
-21.96
-25.27
-28.04
-30.14
-31.74
-33.28
-35.34
-38.52
-43.21
-49.40
-56.55
-63.52
-68.67
-70.22
-66.78
-57.86
-44.16
-27.42
-10.00
5.86
18.60
27.59
33.09
35.85
36.74
36.51
35.66
34.53
33.30
32.07
30.86
29.64
28.38
27.05
25.72
24.52
23.59
23.10
23.17
23.80
24.82
25.88
26.55
26.41
25.26
23.17
20.40
17.34
14.30
11.46
8.86
6.48
4.28
2.19
0.16
-1.88
-3.97
-6.05
-8.02
-9.74
-11.13
-12.26
-13.33
-14.62
-16.41
-18.83
-21.88
-25.37
-28.98
-32.38
-35.37
-37.93
-40.36
-43.16
-46.93
-52.08
-58.60
-65.81
-72.40
-76.61
-76.70
-71.50
-60.83
-45.69
-28.02
-10.18
5.75
18.43
27.45
33.17
36.34
37.81
38.22
37.99
37.33
36.41
35.32
34.16
33.03
31.97
31.00
30.12
29.39
28.93
28.84
29.18
29.84
30.57
31.00
30.79
29.82
28.21
26.31
24.52
23.11
22.10
21.27
20.32
18.98
17.18
15.03
12.75
10.57
8.61
6.84
5.13
3.31
1.29
-0.94
-3.25
-5.44
-7.37
-9.03
-10.58
-12.32
-14.52
-17.30
-20.62
-24.20
-27.76
-31.01
-33.88
-36.51
-39.26
-42.65
-47.19
-53.13
-60.20
-67.49
-73.50
-76.44
-74.76
-67.73
-55.68
-40.07
-23.00
-6.60
7.45
18.38
26.14
31.26
34.39
36.09
36.69
36.38
35.36
33.89
32.34
31.06
30.27
30.03
30.19
30.56
30.94
31.27
31.63
32.12
32.81
33.61
34.25
34.38
33.69
32.09
29.73
26.93
24.13
21.61
19.47
17.58
15.71
13.64
11.27
8.64
5.86
3.09
0.45
-1.98
-4.15
-6.14
-8.09
-10.21
-12.71
-15.68
-18.95
-22.19
-24.96
-27.01
-28.40
-29.60
-31.36
-34.41
-39.22
-45.69
-53.04
-59.88
-64.47
-65.18
-60.93
-51.59
-38.07
-22.11
-5.84
8.81
20.49
28.67
33.57
35.89
36.46
36.00
34.99
33.68
32.15
30.49
28.88
27.51
26.58
26.12
26.05
26.16
26.33
26.55
26.88
27.43
28.12
28.70
28.77
27.97
26.18
23.56
20.55
17.60
15.00
12.79
10.75
8.59
6.08
3.20
0.08
-3.00
-5.83
-8.28
-10.44
-12.52
-14.81
-17.54
-20.79
-24.41
-28.11
-31.54
-34.48
-36.92
-39.15
-41.69
-45.15
-50.08
-56.65
-64.42
-72.24
-78.33
-80.72
-77.87
-69.24
-55.59
-38.80
-21.26
-5.19
7.96
17.68
24.24
28.35
30.79
32.25
33.18
33.83
34.27
34.49
34.40
34.01
33.40
32.74
32.23
32.05
32.36
33.21
34.59
36.32
38.09
39.50
40.13
39.74
38.32
36.11
33.50
30.86
28.49
26.46
24.71
23.03
21.18
19.00
16.48
13.75
11.06
8.66
6.61
4.79
2.96
0.93
-1.37
-3.79
-6.09
-8.09
-9.80
-11.41
-13.26
-15.64
-18.62
-22.10
-25.76
-29.22
-32.22
-34.65
-36.69
-38.73
-41.29
-44.91
-49.98
-56.48
-63.85
-70.83
-75.68
-76.58
-72.23
-62.37
-47.97
-30.98
-13.74
1.75
14.25
23.44
29.64
33.44
35.44
36.12
35.91
35.22
34.45
33.86
33.52
33.28
32.91
32.21
31.20
30.11
29.29
29.07
29.56
30.63
31.92
32.96
33.32
32.76
31.26
29.05
26.50
23.96
21.70
19.81
18.20
16.69
15.13
13.40
11.52
9.57
7.66
5.86
4.21
2.70
1.29
-0.13
-1.62
-3.22
-4.89
-6.50
-7.91
-9.09
-10.17
-11.44
-13.23
-15.72
-18.80
-22.09
-25.09
-27.43
-29.09
-30.38
-31.93
-34.39
-38.26
-43.62
-50.01
-56.42
-61.34
-63.15
-60.52
-52.92
-40.87
-25.90
-10.04
4.69
16.89
25.93
31.90
35.31
36.81
36.96
36.21
34.94
33.46
31.94
30.47
29.01
27.51
25.97
24.52
23.39
22.81
22.94
23.76
25.05
26.46
27.60
28.13
27.87
26.84
25.21
23.23
21.11
19.00
16.99
15.06
13.18
11.34
9.52
7.72
5.94
4.14
2.23
0.09
-2.35
-5.00
-7.68
-10.11
-12.12
-13.69
-15.08
-16.67
-18.81
-21.65
-25.08
-28.78
-32.34
-35.48
-38.09
-40.32
-42.58
-45.42
-49.40
-54.82
-61.48
-68.47
-74.25
-76.97
-75.05
-67.73
-55.37
-39.44
-22.08
-5.51
8.57
19.24
26.41
30.62
32.70
33.49
33.67
33.68
33.72
33.81
33.86
33.73
33.29
32.46
31.29
29.96
28.74
27.96
27.86
28.51
29.70
31.00
31.93
32.06
31.21
29.48
27.19
24.73
22.39
20.36
18.62
17.11
15.68
14.23
12.64
10.92
9.07
7.20
5.41
3.74
2.17
0.57
-1.19
-3.17
-5.28
-7.37
-9.25
-10.79
-12.06
-13.23
-14.58
-16.39
-18.81
-21.79
-25.13
-28.50
-31.53
-34.02
-35.96
-37.64
-39.55
-42.29
-46.37
-51.96
-58.76
-65.85
-71.79
-74.86
-73.50
-66.87
-55.13
-39.50
-22.00
-4.85
10.07
21.62
29.53
34.19
36.34
36.81
36.28
35.28
34.14
33.10
32.26
31.59
31.01
30.32
29.39
28.20
26.92
25.90
25.52
26.03
27.36
29.11
30.65
31.37
30.96
29.44
27.15
24.56
22.09
19.95
18.17
16.64
15.19
13.67
12.01
10.24
8.45
6.73
5.16
3.69
2.23
0.66
-1.07
-2.86
-4.53
-5.89
-6.86
-7.54
-8.18
-9.14
-10.69
-12.94
-15.75
-18.79
-21.63
-23.97
-25.79
-27.35
-29.23
-32.08
-36.46
-42.60
-50.19
-58.24
-65.20
-69.24
-68.74
-62.88
-51.94
-37.33
-21.15
-5.57
7.76
18.02
25.10
29.40
31.50
31.93
31.18
29.72
27.95
26.22
24.73
23.53
22.58
21.81
21.20
20.81
20.75
21.12
21.95
23.16
24.55
25.83
26.64
26.74
26.01
24.53
22.52
20.24
17.90
15.62
13.41
11.23
9.05
6.89
4.84
3.01
1.48
0.21
-0.93
-2.14
-3.58
-5.26
-7.08
-8.83
-10.42
-11.92
-13.64
-15.91
-18.96
-22.69
-26.76
-30.66
-34.02
-36.68
-38.84
-40.97
-43.68
-47.60
-53.11
-60.14
-67.94
-75.05
-79.59
-79.74
-74.38
-63.48
-48.19
-30.51
-12.69
3.35
16.41
26.07
32.57
36.49
38.54
39.41
39.67
39.78
39.97
40.30
40.60
40.64
40.15
39.01
37.37
35.55
33.98
33.03
32.82
33.23
33.96
34.62
34.89
34.54
33.50
31.81
29.66
27.28
24.90
22.63
20.50
18.38
16.15
13.74
11.22
8.79
6.64
4.89
3.48
2.23
0.87
-0.80
-2.87
-5.24
-7.67
-9.92
-11.76
-13.20
-14.43
-15.78
-17.63
-20.20
-23.45
-27.09
-30.71
-33.91
-36.55
-38.81
-41.20
-44.40
-48.98
-55.15
-62.52
-69.98
-75.88
-78.34
-75.86
-67.77
-54.56
-37.82
-19.77
-2.64
11.83
22.73
29.96
34.00
35.60
35.59
34.72
33.64
32.82
32.46
32.48
32.61
32.48
31.86
30.75
29.40
28.17
27.42
27.33
27.89
28.92
30.12
31.15
31.65
31.36
30.17
28.14
25.56
22.79
20.19
17.98
16.16
14.57
13.01
11.33
9.50
7.62
5.78
4.05
2.38
0.67
-1.15
-3.08
-5.02
-6.81
-8.35
-9.65
-10.86
-12.21
-13.91
-16.09
-18.70
-21.53
-24.33
-26.90
-29.22
-31.51
-34.22
-37.86
-42.83
-49.14
-56.22
-62.88
-67.46
-68.25
-64.02
-54.49
-40.54
-23.97
-7.05
8.20
20.43
29.15
34.58
37.31
37.99
37.21
35.44
33.14
30.72
28.57
26.88
25.68
24.85
24.23
23.80
23.63
23.88
24.63
25.81
27.15
28.24
28.76
28.53
27.60
26.18
24.51
22.77
21.00
19.14
17.14
14.98
12.72
10.43
8.15
5.80
3.29
0.55
-2.40
-5.41
-8.23
-10.64
-12.54
-14.05
-15.49
-17.26
-19.70
-22.95
-26.85
-31.05
-35.08
-38.60
-41.49
-43.92
-46.31
-49.24
-53.31
-58.91
-65.98
-73.84
-81.05
-85.71
-85.88
-80.27
-68.71
-52.35
-33.35
-14.24
2.83
16.49
26.35
32.78
36.50
38.34
39.01
39.06
38.90
38.75
38.72
38.75
38.66
38.25
37.40
36.16
34.81
33.74
33.36
33.86
35.19
36.98
38.70
39.81
39.93
38.95
37.04
34.55
31.87
29.33
27.04
24.94
22.83
20.57
18.11
15.55
13.07
10.77
8.64
6.55
4.35
1.99
-0.45
-2.80
-4.94
-6.82
-8.55
-10.29
-12.22
-14.53
-17.30
-20.57
-24.19
-27.90
-31.35
-34.25
-36.54
-38.43
-40.41
-43.15
-47.26
-53.16
-60.81
-69.57
-78.08
-84.46
-86.64
-83.02
-73.01
-57.39
-38.13
-17.85
0.93
16.41
27.84
35.38
39.76
41.83
42.38
41.99
41.11
40.10
39.25
38.67
38.35
38.08
37.65
36.95
36.06
35.26
34.89
35.15
36.01
37.14
38.11
38.49
38.06
36.79
34.87
32.54
30.01
27.44
24.91
22.43
20.00
17.62
15.31
13.06
10.85
8.61
6.26
3.74
1.06
-1.65
-4.21
-6.42
-8.23
-9.70
-11.07
-12.65
-14.72
-17.40
-20.66
-24.28
-27.95
-31.35
-34.30
-36.86
-39.39
-42.46
-46.65
-52.26
-59.10
-66.33
-72.48
-75.77
-74.53
-67.75
-55.46
-38.89
-20.13
-1.59
14.65
27.33
36.15
41.50
44.15
44.80
44.06
42.38
40.19
37.92
35.91
34.40
33.39
32.77
32.37
32.05
31.76
31.56
31.52
31.67
31.97
32.30
32.48
32.28
31.51
30.02
27.80
24.96
21.70
18.31
15.07
12.16
9.62
7.32
5.02
2.51
-0.33
-3.41
-6.46
-9.23
-11.59
-13.59
-15.52
-17.70
-20.42
-23.76
-27.59
-31.63
-35.49
-38.88
-41.67
-44.01
-46.30
-49.09
-52.95
-58.29
-65.19
-73.22
-81.32
-87.85
-90.87
-88.63
-80.17
-65.80
-47.15
-26.74
-7.27
9.22
21.72
30.30
35.73
38.95
40.76
41.68
42.06
42.14
42.13
42.13
42.11
41.89
41.30
40.32
39.12
38.07
37.56
37.82
38.76
40.03
41.08
41.45
40.90
39.52
37.61
35.53
33.50
31.56
29.58
27.41
24.97
22.29
19.48
16.68
13.99
11.48
9.19
7.11
5.18
3.23
1.11
-1.30
-3.99
-6.81
-9.54
-12.03
-14.25
-16.38
-18.68
-21.39
-24.65
-28.36
-32.27
-36.06
-39.50
-42.58
-45.57
-48.97
-53.36
-59.18
-66.50
-74.85
-83.10
-89.58
-92.37
-89.85
-81.19
-66.78
-48.26
-28.08
-8.74
7.81
20.62
29.70
35.64
39.22
41.09
41.73
41.52
40.77
39.75
38.67
37.59
36.54
35.57
34.75
34.26
34.19
34.57
35.32
36.29
37.24
37.90
38.03
37.45
36.11
34.17
31.92
29.67
27.64
25.84
24.10
22.21
20.02
17.53
14.87
12.20
9.63
7.18
4.82
2.51
0.23
-2.00
-4.10
-6.03
-7.85
-9.67
-11.68
-14.04
-16.83
-19.98
-23.29
-26.50
-29.37
-31.77
-33.76
-35.60
-37.72
-40.64
-44.83
-50.48
-57.35
-64.57
-70.72
-74.03
-72.87
-66.25
-54.22
-37.98
-19.60
-1.45
14.46
26.92
35.63
41.05
43.93
44.99
44.70
43.38
41.28
38.76
36.19
33.92
32.15
30.87
29.95
29.30
28.88
28.77
29.05
29.67
30.49
31.21
31.52
31.16
30.06
28.28
26.02
23.55
21.07
18.75
16.60
14.58
12.57
10.45
8.10
5.43
2.45
-0.77
-4.07
-7.23
-10.02
-12.32
-14.16
-15.71
-17.29
-19.24
-21.90
-25.41
-29.68
-34.32
-38.82
-42.70
-45.75
-48.15
-50.48
-53.53
-57.99
-64.17
-71.77
-79.68
-86.12
-89.01
-86.54
-77.78
-63.15
-44.37
-24.03
-4.76
11.48
23.78
32.23
37.48
40.39
41.69
41.92
41.57
41.02
40.57
40.34
40.25
40.05
39.49
38.45
37.00
35.48
34.31
33.82
34.16
35.14
36.29
37.03
36.92
35.74
33.60
30.81
27.71
24.55
21.49
18.60
15.94
13.60
11.67
10.20
9.12
8.31
7.56
6.64
5.31
3.46
1.08
-1.69
-4.59
-7.37
-9.83
-11.90
-13.69
-15.44
-17.42
-19.91
-23.03
-26.72
-30.71
-34.60
-38.02
-40.84
-43.29
-45.95
-49.58
-54.85
-61.90
-70.19
-78.34
-84.37
-86.16
-82.14
-71.81
-56.03
-36.83
-16.85
1.45
16.39
27.33
34.53
38.76
40.90
41.67
41.58
41.00
40.19
39.33
38.51
37.71
36.84
35.82
34.63
33.39
32.28
31.54
31.35
31.74
32.59
33.61
34.45
34.85
34.73
34.17
33.35
32.42
31.37
30.10
28.45
26.30
23.70
20.80
17.81
14.95
12.36
10.07
8.00
6.01
3.96
1.77
-0.51
-2.75
-4.77
-6.41
-7.67
-8.71
-9.81
-11.29
-13.36
-16.06
-19.20
-22.42
-25.38
-27.88
-30.02
-32.18
-34.95
-38.88
-44.24
-50.82
-57.76
-63.70
-66.94
-65.99
-59.96
-48.95
-34.14
-17.44
-1.02
13.30
24.44
32.14
36.72
38.76
38.85
37.49
35.19
32.46
29.86
27.82
26.53
25.89
25.59
25.33
24.96
24.56
24.35
24.55
25.21
26.15
27.04
27.52
27.37
26.51
25.06
23.24
21.27
19.30
17.41
15.58
13.80
12.05
10.31
8.53
6.62
4.43
1.88
-1.03
-4.12
-7.14
-9.82
-12.03
-13.83
-15.46
-17.26
-19.50
-22.28
-25.50
-28.89
-32.14
-35.02
-37.53
-39.92
-42.61
-46.09
-50.75
-56.72
-63.72
-70.96
-77.16
-80.67
-79.95
-73.94
-62.56
-46.84
-28.72
-10.47
5.88
19.04
28.63
34.95
38.69
40.60
41.29
41.20
40.64
39.81
38.85
37.79
36.66
35.47
34.28
33.20
32.35
31.81
31.65
31.83
32.27
32.78
33.12
33.03
32.31
30.91
28.96
26.70
24.41
22.24
20.17
18.03
15.66
12.97
10.05
7.11
4.37
1.96
-0.16
-2.19
-4.39
-6.94
-9.89
-13.01
-15.93
-18.22
-19.56
-19.88
-19.42
-18.70
-18.35
-18.91
-20.60
-23.26
-26.45
-29.61
-32.39
-34.79
-37.16
-40.11
-44.20
-49.77
-56.64
-64.10
-70.88
-75.33
-75.85
-71.29
-61.41
-47.07
-30.06
-12.58
3.34
16.33
25.86
32.10
35.64
37.20
37.46
36.95
36.08
35.13
34.26
33.48
32.74
31.95
31.03
29.99
28.97
28.16
27.80
28.04
28.89
30.15
31.40
32.19
32.17
31.18
29.39
27.12
24.75
22.53
20.53
18.65
16.69
14.52
12.11
9.65
7.38
5.54
4.22
3.28
2.42
1.30
-0.26
-2.24
-4.42
-6.52
-8.35
-9.94
-11.53
-13.46
-15.96
-19.07
-22.56
-26.03
-29.11
-31.56
-33.40
-34.99
-36.84
-39.56
-43.60
-49.05
-55.40
-61.55
-65.89
-66.74
-62.84
-53.84
-40.49
-24.52
-8.09
6.78
18.76
27.39
32.95
36.03
37.28
37.12
35.84
33.70
31.08
28.45
26.25
24.71
23.81
23.33
23.02
22.77
22.66
22.84
23.41
24.33
25.35
26.16
26.51
26.24
25.34
23.86
21.91
19.66
17.31
15.06
13.08
11.40
9.89
8.30
6.33
3.82
0.82
-2.40
-5.41
-7.81
-9.45
-10.47
-11.35
-12.65
-14.82
-18.01
-21.94
-26.11
-29.93
-33.00
-35.26
-36.97
-38.67
-41.02
-44.64
-49.89
-56.73
-64.49
-71.86
-77.06
-78.21
-73.94
-63.90
-48.97
-31.08
-12.67
4.00
17.42
27.07
33.24
36.72
38.37
38.85
38.57
37.79
36.70
35.51
34.39
33.42
32.54
31.62
30.57
29.43
28.42
27.87
28.04
28.97
30.39
31.83
32.78
32.86
31.96
30.24
27.98
25.54
23.17
21.04
19.16
17.44
15.75
13.91
11.83
9.50
7.03
4.66
2.65
1.11
-0.02
-0.99
-2.15
-3.79
-5.96
-8.46
-10.94
-13.09
-14.79
-16.22
-17.72
-19.61
-22.09
-25.07
-28.32
-31.55
-34.55
-37.28
-39.87
-42.61
-45.90
-50.15
-55.62
-62.18
-69.05
-74.82
-77.63
-75.76
-68.28
-55.44
-38.77
-20.57
-3.30
11.15
21.86
28.83
32.70
34.36
34.65
34.16
33.32
32.38
31.49
30.76
30.22
29.84
29.56
29.30
29.04
28.81
28.69
28.80
29.24
29.98
30.83
31.50
31.67
31.09
29.74
27.79
25.59
23.54
21.92
20.82
20.14
19.62
18.92
17.82
16.20
14.17
11.96
9.81
7.93
6.37
4.98
3.54
1.84
-0.20
-2.49
-4.79
-6.83
-8.52
-9.95
-11.39
-13.16
-15.42
-18.14
-21.06
-23.87
-26.33
-28.42
-30.26
-32.14
-34.45
-37.58
-41.93
-47.74
-54.81
-62.33
-68.83
-72.47
-71.57
-65.29
-53.91
-38.91
-22.38
-6.42
7.46
18.57
26.90
32.78
36.56
38.52
38.88
37.96
36.21
34.16
32.26
30.74
29.63
28.81
28.14
27.58
27.24
27.25
27.73
28.65
29.78
30.78
31.31
31.14
30.23
28.75
27.00
25.23
23.59
22.04
20.42
18.50
16.11
13.22
10.02
6.82
3.98
1.73
0.13
-1.03
-2.10
-3.39
-5.08
-7.08
-9.13
-10.92
-12.31
-13.39
-14.51
-16.10
-18.48
-21.72
-25.58
-29.56
-33.19
-36.16
-38.53
-40.72
-43.38
-47.14
-52.40
-59.17
-66.88
-74.43
-80.24
-82.56
-79.90
-71.53
-57.85
-40.39
-21.45
-3.44
11.76
23.26
31.06
35.84
38.45
39.61
39.79
39.27
38.32
37.19
36.13
35.25
34.55
33.90
33.18
32.42
31.81
31.61
32.02
33.02
34.33
35.54
36.24
36.25
35.59
34.48
33.13
31.70
30.19
28.61
26.93
25.19
23.39
21.47
19.29
16.70
13.70
10.49
7.43
4.88
2.98
1.59
0.33
-1.23
-3.35
-6.02
-8.99
-11.96
-14.68
-17.08
-19.27
-21.43
-23.79
-26.49
-29.59
-33.05
-36.70
-40.34
-43.84
-47.21
-50.70
-54.67
-59.48
-65.32
-72.00
-78.83
-84.64
-87.92
-87.16
-81.24
-69.91
-53.98
-35.18
-15.78
2.09
16.91
28.09
35.76
40.50
43.00
43.83
43.46
42.32
40.82
39.32
38.00
36.89
35.84
34.73
33.52
32.36
31.49
31.16
31.48
32.38
33.62
34.86
35.70
35.87
35.22
33.80
31.84
29.66
27.57
25.71
24.02
22.23
20.08
17.46
14.48
11.49
8.82
6.70
5.06
3.64
2.12
0.25
-1.97
-4.38
-6.73
-8.83
-10.59
-12.10
-13.54
-15.19
-17.27
-19.89
-22.95
-26.21
-29.30
-31.99
-34.24
-36.34
-38.81
-42.23
-47.01
-53.10
-59.85
-66.00
-69.87
-69.78
-64.56
-54.00
-39.03
-21.53
-3.77
12.18
24.99
34.15
39.88
42.72
43.31
42.21
39.94
37.03
34.00
31.26
29.10
27.58
26.61
26.06
25.77
25.67
25.70
25.85
26.10
26.41
26.72
26.91
26.87
26.51
25.79
24.76
23.49
22.02
20.33
18.39
16.14
13.63
10.96
8.29
5.80
3.60
1.72
0.09
-1.42
-3.00
-4.78
-6.83
-9.05
-11.27
-13.30
-15.08
-16.76
-18.63
-21.00
-24.04
-27.63
-31.45
-35.10
-38.27
-40.91
-43.27
-45.85
-49.24
-53.96
-60.22
-67.74
-75.58
-82.16
-85.56
-84.02
-76.56
-63.36
-45.89
-26.45
-7.56
8.76
21.41
30.28
35.89
39.04
40.45
40.66
40.04
38.91
37.57
36.30
35.23
34.32
33.46
32.53
31.53
30.65
30.19
30.42
31.43
33.01
34.72
36.05
36.58
36.14
34.84
32.97
30.89
28.90
27.09
25.42
23.70
21.71
19.31
16.51
13.49
10.52
7.89
5.75
4.05
2.53
0.87
-1.17
-3.64
-6.38
-9.13
-11.64
-13.82
-15.73
-17.58
-19.62
-21.99
-24.71
-27.65
-30.60
-33.42
-36.06
-38.69
-41.60
-45.22
-49.96
-55.99
-63.06
-70.33
-76.40
-79.53
-78.11
-71.19
-58.88
-42.46
-24.01
-5.87
10.01
22.46
31.18
36.56
39.36
40.36
40.22
39.42
38.24
36.87
35.45
34.08
32.85
31.85
31.11
30.67
30.52
30.66
31.07
31.70
32.45
33.16
33.62
33.65
33.14
32.13
30.73
29.07
27.20
25.13
22.83
20.33
17.74
15.24
12.94
10.84
8.78
6.55
3.99
1.09
-2.01
-5.03
-7.77
-10.10
-12.04
-13.78
-15.59
-17.76
-20.50
-23.85
-27.65
-31.56
-35.20
-38.31
-40.98
-43.61
-46.86
-51.46
-57.88
-66.05
-75.17
-83.56
-89.02
-89.26
-82.61
-68.71
-48.69
-25.02
-0.76
21.23
39.03
51.80
59.71
63.43
63.82
61.70
57.91
53.29
48.72
44.91
42.21
40.52
39.41
38.32
36.95
35.30
33.72
32.61
32.21
32.47
33.05
33.48
33.36
32.52
30.98
28.90
26.49
23.90
21.21
18.45
15.66
12.89
10.21
7.72
5.44
3.31
1.19
-1.11
-3.71
-6.59
-9.58
-12.36
-14.67
-16.47
-17.95
-19.52
-21.63
-24.51
-28.07
-31.93
-35.61
-38.78
-41.40
-43.82
-46.62
-50.45
-55.76
-62.55
-70.22
-77.51
-82.66
-83.87
-79.75
-69.90
-55.08
-37.08
-18.23
-0.75
13.81
24.76
32.22
36.75
39.09
39.92
39.78
39.14
38.37
37.68
37.13
36.62
35.98
35.09
33.96
32.78
31.82
31.35
31.52
32.33
33.62
35.09
36.36
37.05
36.89
35.77
33.79
31.24
28.44
25.69
23.13
20.77
18.53
16.31
14.04
11.72
9.41
7.19
5.17
3.42
1.96
0.73
-0.47
-1.90
-3.77
-6.19
-9.03
-11.99
-14.67
-16.78
-18.27
-19.40
-20.61
-22.39
-24.98
-28.32
-32.09
-35.85
-39.28
-42.27
-45.01
-47.84
-51.18
-55.43
-60.87
-67.49
-74.86
-81.93
-87.11
-88.56
-84.73
-75.01
-60.00
-41.45
-21.80
-3.41
12.00
23.66
31.67
36.63
39.34
40.52
40.76
40.53
40.17
39.86
39.65
39.46
39.14
38.60
37.87
37.10
36.55
36.41
36.78
37.58
38.58
39.44
39.85
39.61
38.70
37.27
35.58
33.90
32.38
31.07
29.88
28.68
27.36
25.83
24.08
22.11
19.96
17.70
15.44
13.31
11.43
9.86
8.47
7.04
5.30
3.07
0.31
-2.75
-5.79
-8.44
-10.52
-12.08
-13.39
-14.85
-16.82
-19.44
-22.62
-26.07
-29.42
-32.44
-35.11
-37.67
-40.51
-44.03
-48.55
-54.11
-60.38
-66.54
-71.35
-73.28
-70.96
-63.68
-51.66
-36.14
-19.02
-2.41
12.02
23.25
31.04
35.69
37.76
37.88
36.59
34.38
31.69
28.91
26.33
24.13
22.35
20.97
19.90
19.13
18.74
18.91
19.80
21.41
23.51
25.64
27.28
28.03
27.81
26.78
25.27
23.54
21.73
19.79
17.66
15.31
12.86
10.47
8.20
6.04
3.86
1.57
-0.82
-3.16
-5.26
-6.95
-8.18
-9.09
-9.96
-11.14
-12.94
-15.57
-18.99
-22.98
-27.16
-31.13
-34.63
-37.62
-40.36
-43.27
-46.86
-51.52
-57.33
-63.93
-70.37
-75.24
-76.88
-73.88
-65.55
-52.28
-35.53
-17.49
-0.43
13.89
24.62
31.78
36.00
38.12
38.86
38.73
38.04
37.00
35.79
34.60
33.51
32.58
31.81
31.22
30.88
30.87
31.27
32.07
33.12
34.21
35.07
35.45
35.20
34.28
32.75
30.82
28.74
26.69
24.76
22.88
20.88
18.59
15.99
13.19
10.37
7.74
5.35
3.17
1.07
-1.02
-3.13
-5.17
-7.10
-8.93
-10.79
-12.86
-15.32
-18.25
-21.54
-24.95
-28.16
-30.94
-33.33
-35.59
-38.25
-41.88
-46.92
-53.50
-61.29
-69.43
-76.57
-81.09
-81.40
-76.49
-66.26
-51.72
-34.72
-17.48
-1.97
10.54
19.62
25.55
29.01
30.80
31.61
31.99
32.33
32.83
33.54
34.34
34.99
35.30
35.14
34.57
33.79
33.08
32.75
32.97
33.72
34.78
35.77
36.30
36.08
35.00
33.22
31.05
28.89
27.05
25.64
24.53
23.37
21.79
19.58
16.79
13.80
11.06
8.94
7.48
6.39
5.19
3.46
1.10
-1.68
-4.45
-6.79
-8.53
-9.81
-11.02
-12.57
-14.75
-17.59
-20.90
-24.34
-27.56
-30.33
-32.59
-34.43
-36.15
-38.24
-41.22
-45.53
-51.17
-57.56
-63.41
-67.02
-66.74
-61.53
-51.39
-37.40
-21.48
-5.71
8.12
18.97
26.58
31.28
33.68
34.40
33.97
32.79
31.21
29.54
28.07
26.92
26.11
25.48
24.90
24.29
23.70
23.34
23.44
24.09
25.21
26.53
27.66
28.22
27.98
26.92
25.22
23.11
20.85
18.59
16.39
14.28
12.26
10.41
8.75
7.25
5.81
4.27
2.52
0.55
-1.53
-3.59
-5.52
-7.32
-9.11
-11.07
-13.34
-15.99
-18.96
-22.06
-25.05
-27.71
-29.91
-31.74
-33.51
-35.78
-39.14
-44.01
-50.27
-57.10
-63.06
-66.32
-65.30
-59.12
-48.03
-33.32
-16.99
-1.21
12.27
22.41
28.98
32.39
33.39
32.83
31.43
29.68
27.86
26.13
24.60
23.32
22.33
21.60
21.05
20.58
20.19
19.93
19.95
20.33
21.03
21.88
22.55
22.74
22.21
20.94
19.05
16.80
14.49
12.34
10.46
8.79
7.16
5.34
3.14
0.50
-2.44
-5.43
-8.11
-10.23
-11.67
-12.58
-13.30
-14.34
-16.13
-18.91
-22.58
-26.72
-30.73
-34.15
-36.77
-38.84
-40.96
-43.89
-48.25
-54.27
-61.57
-69.10
-75.30
-78.42
-76.97
-70.17
-58.35
-42.82
-25.63
-8.98
5.32
16.26
23.66
28.04
30.25
31.15
31.45
31.58
31.69
31.80
31.81
31.62
31.16
30.42
29.48
28.51
27.79
27.61
28.24
29.76
32.00
34.47
36.60
37.83
37.88
36.79
34.86
32.47
29.93
27.39
24.88
22.39
19.87
17.32
14.73
12.08
9.33
6.46
3.44
0.35
-2.74
-5.66
-8.28
-10.49
-12.28
-13.82
-15.38
-17.29
-19.76
-22.77
-26.13
-29.51
-32.61
-35.33
-37.75
-40.21
-43.20
-47.23
-52.69
-59.57
-67.30
-74.61
-79.76
-80.95
-76.85
-67.15
-52.72
-35.37
-17.34
-0.72
13.05
23.37
30.33
34.47
36.53
37.20
37.09
36.64
36.12
35.64
35.21
34.75
34.19
33.57
33.02
32.70
32.75
33.19
33.91
34.71
35.39
35.81
35.85
35.48
34.67
33.41
31.75
29.79
27.64
25.43
23.21
20.98
18.69
16.30
13.83
11.35
8.98
6.79
4.75
2.78
0.76
-1.34
-3.43
-5.36
-7.00
-8.38
-9.71
-11.31
-13.47
-16.30
-19.67
-23.33
-26.98
-30.37
-33.37
-36.00
-38.44
-41.07
-44.40
-48.92
-54.77
-61.45
-67.77
-72.00
-72.40
-67.75
-57.83
-43.49
-26.47
-8.86
7.40
20.93
31.04
37.71
41.39
42.69
42.26
40.69
38.47
36.04
33.80
31.99
30.72
29.91
29.40
29.04
28.75
28.60
28.63
28.85
29.15
29.32
29.16
28.57
27.60
26.35
24.94
23.41
21.68
19.65
17.22
14.41
11.31
8.13
5.09
2.29
-0.24
-2.68
-5.22
-8.04
-11.22
-14.66
-18.21
-21.68
-24.91
-27.78
-30.18
-32.05
-33.40
-34.32
-34.96
-35.49
-36.05
-36.74
-37.74
-39.42
-42.30
-46.90
-53.52
-61.84
-70.88
-78.97
-84.13
-84.58
-79.22
-67.97
-51.88
-32.86
-13.19
5.04
20.32
31.97
40.05
45.13
48.00
49.42
49.97
50.04
49.77
49.16
48.20
46.93
45.45
43.97
42.66
41.63
40.96
40.66
40.73
41.14
41.73
42.22
42.25
41.52
39.92
37.58
34.86
32.12
29.57
27.19
24.81
22.26
19.48
16.54
13.65
10.99
8.63
6.53
4.53
2.44
0.15
-2.40
-5.08
-7.72
-10.13
-12.23
-14.10
-15.95
-18.06
-20.64
-23.73
-27.21
-30.81
-34.26
-37.38
-40.21
-42.95
-46.03
-49.93
-55.07
-61.65
-69.34
-77.22
-83.73
-86.98
-85.31
-77.78
-64.67
-47.47
-28.45
-10.02
5.98
18.59
27.77
34.00
37.98
40.29
41.43
41.78
41.69
41.40
41.01
40.46
39.63
38.46
37.06
35.66
34.55
33.94
33.96
34.57
35.60
36.75
37.64
37.93
37.37
35.92
33.72
31.08
28.27
25.51
22.92
20.55
18.41
16.43
14.50
12.44
10.10
7.40
4.41
1.26
-1.89
-4.91
-7.76
-10.46
-13.04
-15.61
-18.30
-21.23
-24.44
-27.87
-31.34
-34.58
-37.37
-39.65
-41.55
-43.41
-45.66
-48.71
-52.73
-57.46
-62.10
-65.35
-65.73
-61.99
-53.54
-40.73
-24.80
-7.56
9.10
23.55
34.80
42.50
46.88
48.52
48.15
46.45
43.94
41.01
37.95
35.01
32.40
30.31
28.81
27.89
27.49
27.53
27.96
28.73
29.73
30.75
31.42
31.38
30.36
28.33
25.51
22.30
19.08
16.12
13.41
10.77
7.93
4.70
1.07
-2.79
-6.58
-10.02
-13.01
-15.62
-18.13
-20.81
-23.87
-27.28
-30.87
-34.31
-37.38
-40.04
-42.58
-45.55
-49.61
-55.25
-62.53
-70.83
-78.79
-84.57
-86.27
-82.49
-72.81
-57.99
-39.82
-20.67
-2.83
12.00
23.08
30.53
35.06
37.54
38.72
39.12
39.03
38.67
38.18
37.67
37.12
36.40
35.39
34.06
32.60
31.37
30.75
30.95
31.90
33.19
34.27
34.58
33.80
31.92
29.27
26.32
23.52
21.07
18.87
16.59
13.83
10.38
6.33
2.02
-2.12
-5.74
-8.74
-11.22
-13.51
-15.95
-18.82
-22.20
-25.94
-29.77
-33.34
-36.48
-39.27
-42.07
-45.46
-50.02
-56.07
-63.44
-71.34
-78.40
-82.86
-83.04
-77.79
-66.91
-51.38
-33.09
-14.40
2.53
16.24
26.25
32.87
36.90
39.16
40.30
40.66
40.42
39.68
38.64
37.51
36.48
35.65
34.98
34.42
33.93
33.59
33.55
33.90
34.61
35.42
35.93
35.73
34.57
32.49
29.80
26.97
24.40
22.23
20.33
18.31
15.79
12.58
8.81
4.84
1.18
-1.83
-4.08
-5.83
-7.51
-9.59
-12.37
-15.85
-19.76
-23.65
-27.11
-29.88
-32.00
-33.83
-35.93
-38.93
-43.33
-49.22
-56.19
-63.12
-68.40
-70.20
-67.07
-58.40
-44.79
-27.93
-10.15
6.26
19.66
29.39
35.67
39.17
40.66
40.71
39.69
37.93
35.79
33.66
31.90
30.66
29.90
29.44
29.13
28.90
28.83
29.00
29.44
30.01
30.48
30.58
30.13
29.04
27.36
25.20
22.71
20.02
17.23
14.33
11.26
7.96
4.43
0.78
-2.79
-6.12
-9.12
-11.87
-14.59
-17.54
-20.86
-24.50
-28.25
-31.80
-34.94
-37.64
-40.14
-42.96
-46.72
-51.92
-58.59
-66.09
-73.04
-77.59
-77.93
-72.92
-62.50
-47.77
-30.67
-13.39
2.23
15.09
24.87
31.80
36.41
39.22
40.67
41.13
40.90
40.23
39.39
38.53
37.72
36.94
36.16
35.39
34.69
34.19
34.00
34.17
34.59
35.05
35.25
34.94
33.99
32.47
30.57
28.51
26.44
24.34
22.11
19.66
16.96
14.15
11.43
8.98
6.86
4.99
3.19
1.26
-0.88
-3.22
-5.65
-8.05
-10.36
-12.59
-14.82
-17.21
-19.90
-22.97
-26.36
-29.92
-33.39
-36.56
-39.35
-41.90
-44.63
-48.10
-52.83
-59.07
-66.52
-74.23
-80.62
-83.82
-82.22
-74.95
-62.33
-45.80
-27.56
-9.92
5.33
17.28
25.83
31.50
35.01
37.01
37.97
38.21
37.94
37.34
36.56
35.73
34.95
34.26
33.66
33.15
32.74
32.53
32.63
33.15
34.08
35.18
36.09
36.42
35.91
34.55
32.55
30.24
27.90
25.68
23.58
21.51
19.39
17.21
15.03
12.97
11.11
9.46
7.92
6.30
4.44
2.25
-0.21
-2.74
-5.08
-7.05
-8.63
-10.01
-11.51
-13.45
-16.00
-19.07
-22.36
-25.49
-28.15
-30.27
-32.07
-34.00
-36.60
-40.33
-45.41
-51.59
-58.12
-63.70
-66.78
-65.93
-60.26
-49.87
-35.86
-20.07
-4.53
9.05
19.67
27.10
31.71
34.14
35.10
35.13
34.61
33.73
32.61
31.31
29.91
28.55
27.39
26.56
26.14
26.10
26.38
26.89
27.58
28.33
28.99
29.32
29.06
28.05
26.33
24.15
21.81
19.59
17.56
15.66
13.71
11.61
9.35
7.02
4.74
2.54
0.40
-1.74
-3.92
-6.10
-8.19
-10.11
-11.84
-13.44
-15.09
-17.00
-19.37
-22.27
-25.60
-29.12
-32.48
-35.46
-38.02
-40.38
-43.00
-46.44
-51.14
-57.23
-64.35
-71.48
-77.10
-79.43
-76.97
-69.02
-56.02
-39.50
-21.73
-5.00
9.00
19.48
26.56
30.97
33.57
35.13
36.13
36.85
37.36
37.63
37.60
37.15
36.23
34.87
33.25
31.67
30.47
29.93
30.15
31.06
32.36
33.61
34.34
34.18
32.98
30.86
28.16
25.36
22.85
20.82
19.24
17.86
16.42
14.71
12.67
10.38
7.99
5.69
3.59
1.75
0.08
-1.53
-3.20
-5.00
-6.89
-8.75
-10.50
-12.13
-13.78
-15.69
-18.12
-21.19
-24.74
-28.42
-31.80
-34.55
-36.60
-38.21
-39.91
-42.31
-46.01
-51.33
-58.13
-65.66
-72.55
-76.99
-77.15
-71.83
-60.91
-45.53
-27.79
-10.13
5.33
17.34
25.62
30.68
33.40
34.68
35.16
35.22
34.98
34.46
33.66
32.64
31.49
30.32
29.21
28.24
27.48
27.05
27.04
27.50
28.34
29.35
30.18
30.49
30.09
28.95
27.24
25.24
23.20
21.28
19.50
17.76
15.96
14.07
12.10
10.11
8.15
6.21
4.25
2.22
0.13
-1.94
-3.89
-5.65
-7.19
-8.61
-10.10
-11.84
-13.99
-16.55
-19.41
-22.30
-24.95
-27.19
-29.04
-30.70
-32.53
-34.98
-38.44
-43.16
-49.02
-55.44
-61.32
-65.15
-65.39
-60.90
-51.42
-37.73
-21.50
-4.86
10.19
22.20
30.57
35.41
37.34
37.18
35.69
33.46
30.95
28.52
26.48
25.01
24.16
23.77
23.62
23.48
23.32
23.24
23.43
24.00
24.89
25.85
26.58
26.75
26.18
24.80
22.71
20.10
17.24
14.45
11.96
9.88
8.15
6.59
4.95
3.06
0.81
-1.78
-4.58
-7.43
-10.09
-12.43
-14.39
-16.08
-17.77
-19.76
-22.28
-25.37
-28.85
-32.42
-35.73
-38.61
-41.09
-43.50
-46.34
-50.21
-55.49
-62.17
-69.67
-76.81
-82.03
-83.66
-80.45
-71.93
-58.63
-41.97
-23.96
-6.63
8.40
20.26
28.78
34.40
37.80
39.69
40.58
40.86
40.76
40.45
40.01
39.46
38.71
37.69
36.39
34.97
33.70
32.92
32.87
33.56
34.75
36.03
36.95
37.15
36.41
34.77
32.44
29.77
27.09
24.64
22.45
20.37
18.14
15.62
12.83
9.99
7.42
5.34
3.79
2.54
1.28
-0.32
-2.36
-4.75
-7.21
-9.46
-11.35
-12.97
-14.64
-16.77
-19.68
-23.43
-27.79
-32.28
-36.36
-39.66
-42.09
-43.94
-45.74
-48.20
-51.94
-57.32
-64.15
-71.58
-78.12
-81.94
-81.40
-75.48
-64.24
-48.80
-31.06
-13.15
3.04
16.27
26.02
32.48
36.29
38.27
39.24
39.74
40.08
40.31
40.36
40.15
39.68
39.02
38.28
37.55
36.96
36.60
36.56
36.84
37.35
37.88
38.14
37.84
36.85
35.19
33.03
30.64
28.23
25.92
23.69
21.47
19.14
16.63
13.96
11.21
8.55
6.10
3.90
1.92
0.01
-2.00
-4.19
-6.51
-8.79
-10.84
-12.54
-14.01
-15.52
-17.40
-19.88
-22.93
-26.25
-29.46
-32.26
-34.61
-36.76
-39.21
-42.51
-47.09
-53.05
-59.99
-66.89
-72.23
-74.27
-71.58
-63.48
-50.39
-33.80
-15.84
1.30
15.92
27.12
34.81
39.45
41.72
42.25
41.55
40.01
37.98
35.77
33.73
32.10
30.98
30.29
29.88
29.61
29.48
29.61
30.14
31.10
32.27
33.29
33.77
33.46
32.34
30.57
28.40
26.00
23.47
20.85
18.20
15.62
13.25
11.16
9.31
7.56
5.71
3.59
1.16
-1.54
-4.35
-7.15
-9.92
-12.69
-15.59
-18.78
-22.33
-26.20
-30.24
-34.22
-37.94
-41.26
-44.25
-47.21
-50.59
-54.94
-60.66
-67.77
-75.63
-82.97
-88.01
-88.93
-84.41
-74.12
-58.91
-40.60
-21.47
-3.68
11.25
22.61
30.48
35.40
38.16
39.50
40.02
40.13
40.08
39.94
39.73
39.39
38.87
38.18
37.38
36.64
36.17
36.20
36.87
38.11
39.69
41.18
42.12
42.13
41.11
39.17
36.64
33.90
31.23
28.76
26.41
24.02
21.45
18.64
15.68
12.71
9.88
7.30
4.98
2.81
0.68
-1.56
-3.97
-6.48
-8.97
-11.28
-13.37
-15.34
-17.44
-19.98
-23.12
-26.78
-30.66
-34.41
-37.74
-40.65
-43.35
-46.22
-49.73
-54.29
-60.16
-67.29
-75.11
-82.47
-87.68
-88.89
-84.68
-74.55
-59.21
-40.46
-20.69
-2.22
13.24
24.87
32.75
37.54
40.21
41.66
42.57
43.29
43.95
44.49
44.79
44.75
44.32
43.50
42.41
41.24
40.27
39.69
39.64
40.06
40.73
41.31
41.49
41.01
39.76
37.81
35.41
32.90
30.59
28.66
26.99
25.31
23.22
20.51
17.23
13.75
10.55
8.01
6.20
4.87
3.57
1.93
-0.22
-2.76
-5.38
-7.75
-9.74
-11.44
-13.11
-15.07
-17.55
-20.57
-23.97
-27.50
-30.88
-33.98
-36.76
-39.39
-42.18
-45.56
-49.97
-55.63
-62.32
-69.14
-74.57
-76.77
-74.15
-65.94
-52.58
-35.64
-17.37
-0.05
14.62
25.76
33.30
37.72
39.71
39.96
39.06
37.51
35.72
34.01
32.60
31.53
30.76
30.18
29.74
29.45
29.46
29.92
30.89
32.24
33.68
34.79
35.18
34.64
33.17
30.98
28.37
25.65
23.05
20.65
18.47
16.43
14.45
12.45
10.34
8.07
5.63
3.09
0.56
-1.81
-3.93
-5.79
-7.47
-9.12
-10.92
-13.03
-15.55
-18.53
-21.88
-25.48
-29.06
-32.39
-35.25
-37.61
-39.68
-41.88
-44.82
-49.04
-54.87
-62.09
-69.86
-76.67
-80.68
-80.15
-74.02
-62.36
-46.39
-28.20
-10.12
5.85
18.51
27.57
33.41
36.78
38.51
39.24
39.40
39.27
39.01
38.68
38.25
37.66
36.80
35.64
34.26
32.89
31.84
31.41
31.76
32.81
34.18
35.40
35.97
35.59
34.25
32.20
29.82
27.47
25.37
23.52
21.75
19.83
17.59
15.01
12.25
9.53
7.05
4.95
3.19
1.65
0.13
-1.56
-3.53
-5.77
-8.14
-10.45
-12.53
-14.32
-15.94
-17.67
-19.81
-22.60
-26.07
-30.00
-34.00
-37.66
-40.69
-43.11
-45.25
-47.72
-51.24
-56.33
-63.01
-70.62
-77.77
-82.63
-83.36
-78.70
-68.40
-53.38
-35.50
-17.07
-0.19
13.72
24.09
31.11
35.42
37.80
38.92
39.29
39.22
38.88
38.34
37.64
36.77
35.72
34.51
33.23
32.00
31.02
30.48
30.52
31.17
32.26
33.44
34.29
34.38
33.47
31.61
29.06
26.28
23.73
21.70
20.18
18.93
17.54
15.67
13.25
10.48
7.78
5.55
3.98
3.01
2.36
1.66
0.57
-1.04
-3.16
-5.62
-8.15
-10.54
-12.63
-14.46
-16.20
-18.06
-20.23
-22.74
-25.45
-28.11
-30.53
-32.62
-34.51
-36.53
-39.14
-42.81
-47.80
-53.95
-60.49
-66.04
-68.92
-67.56
-61.06
-49.58
-34.38
-17.46
-0.99
13.22
24.14
31.51
35.70
37.36
37.18
35.80
33.75
31.45
29.27
27.43
26.02
25.03
24.34
23.88
23.63
23.62
23.96
24.68
25.76
27.05
28.33
29.35
29.87
29.71
28.79
27.13
24.88
22.26
19.52
16.88
14.46
12.32
10.43
8.70
7.04
5.34
3.49
1.39
-1.03
-3.71
-6.53
-9.28
-11.77
-13.94
-15.87
-17.77
-19.94
-22.58
-25.72
-29.19
-32.66
-35.81
-38.51
-40.92
-43.52
-46.90
-51.63
-57.93
-65.51
-73.45
-80.28
-84.23
-83.63
-77.49
-65.82
-49.77
-31.38
-12.97
3.40
16.53
26.08
32.51
36.63
39.24
40.92
41.94
42.39
42.28
41.68
40.71
39.48
38.10
36.63
35.13
33.72
32.62
32.10
32.33
33.21
34.43
35.46
35.80
35.15
33.55
31.30
28.80
26.40
24.19
22.14
20.07
17.83
15.40
12.86
10.34
7.95
5.69
3.46
1.15
-1.31
-3.85
-6.29
-8.41
-10.10
-11.44
-12.71
-14.27
-16.39
-19.21
-22.62
-26.38
-30.16
-33.66
-36.64
-39.06
-41.14
-43.35
-46.36
-50.82
-56.99
-64.45
-71.95
-77.64
-79.52
-76.08
-66.83
-52.54
-35.01
-16.56
0.57
14.82
25.47
32.56
36.62
38.37
38.49
37.55
36.07
34.45
32.98
31.80
30.86
30.03
29.16
28.23
27.36
26.76
26.59
26.95
27.74
28.71
29.57
30.00
29.80
28.91
27.43
25.59
23.63
21.77
20.07
18.46
16.79
14.95
12.92
10.80
8.77
6.97
5.44
4.07
2.69
1.13
-0.67
-2.66
-4.66
-6.52
-8.14
-9.56
-10.98
-12.59
-14.56
-16.91
-19.49
-22.08
-24.52
-26.73
-28.84
-31.09
-33.85
-37.44
-42.09
-47.71
-53.78
-59.28
-62.77
-62.73
-58.02
-48.35
-34.49
-18.17
-1.60
13.16
24.74
32.67
37.27
39.29
39.55
38.68
37.04
34.85
32.32
29.74
27.43
25.66
24.53
23.97
23.82
23.94
24.27
24.85
25.69
26.67
27.50
27.86
27.51
26.40
24.71
22.72
20.70
18.78
17.00
15.26
13.45
11.48
9.24
6.68
3.84
0.83
-2.16
-4.93
-7.35
-9.41
-11.21
-12.93
-14.74
-16.81
-19.26
-22.12
-25.35
-28.77
-32.15
-35.28
-38.02
-40.45
-42.85
-45.68
-49.43
-54.49
-60.87
-68.08
-75.02
-80.11
-81.65
-78.39
-69.93
-56.93
-40.97
-24.06
-8.04
5.77
16.82
25.08
30.87
34.61
36.76
37.75
37.99
37.85
37.54
37.12
36.57
35.78
34.73
33.49
32.22
31.12
30.41
30.20
30.47
31.08
31.77
32.24
32.19
31.48
30.09
28.19
26.01
23.78
21.67
19.72
17.92
16.18
14.45
12.68
10.88
9.11
7.38
5.66
3.88
1.94
-0.16
-2.35
-4.48
-6.37
-8.01
-9.55
-11.30
-13.59
-16.56
-20.09
-23.83
-27.35
-30.39
-32.94
-35.26
-37.78
-40.95
-45.13
-50.48
-56.84
-63.64
-69.85
-74.05
-74.75
-70.80
-61.81
-48.39
-32.06
-14.83
1.32
14.92
25.26
32.33
36.63
38.88
39.77
39.87
39.53
38.98
38.32
37.61
36.83
35.92
34.87
33.68
32.48
31.48
30.94
31.04
31.78
32.94
34.09
34.78
34.65
33.61
31.79
29.51
27.13
24.91
22.97
21.24
19.55
17.72
15.63
13.32
10.96
8.77
6.90
5.39
4.14
2.95
1.61
0.01
-1.83
-3.82
-5.82
-7.72
-9.52
-11.29
-13.19
-15.35
-17.85
-20.66
-23.59
-26.38
-28.78
-30.71
-32.29
-33.98
-36.38
-40.06
-45.28
-51.67
-58.19
-63.27
-65.24
-62.82
-55.58
-44.09
-29.74
-14.32
0.46
13.29
23.41
30.60
35.01
37.03
37.17
36.04
34.18
32.09
30.14
28.52
27.29
26.39
25.73
25.21
24.83
24.68
24.85
25.41
26.27
27.22
27.98
28.27
27.96
27.04
25.63
23.89
21.93
19.86
17.73
15.58
13.49
11.51
9.63
7.78
5.82
3.61
1.09
-1.65
-4.39
-6.83
-8.78
-10.22
-11.39
-12.66
-14.38
-16.75
-19.72
-23.02
-26.35
-29.43
-32.14
-34.49
-36.64
-38.87
-41.56
-45.12
-49.80
-55.50
-61.52
-66.64
-69.31
-68.14
-62.32
-51.98
-38.19
-22.60
-7.05
6.90
18.25
26.63
32.17
35.29
36.50
36.32
35.21
33.63
31.98
30.60
29.64
29.09
28.79
28.57
28.33
28.09
27.92
27.89
27.97
28.05
28.02
27.85
27.54
27.12
26.59
25.88
24.93
23.71
22.18
20.34
18.13
15.55
12.71
9.87
7.36
5.49
4.29
3.57
2.89
1.84
0.14
-2.19
-4.90
-7.63
-10.08
-12.17
-14.00
-15.85
-17.99
-20.61
-23.67
-26.97
-30.19
-33.11
-35.67
-38.06
-40.69
-44.02
-48.43
-54.00
-60.38
-66.72
-71.75
-73.98
-72.15
-65.58
-54.47
-39.91
-23.67
-7.68
6.39
17.54
25.49
30.57
33.42
34.76
35.17
35.07
34.72
34.26
33.76
33.21
32.56
31.73
30.67
29.44
28.21
27.25
26.81
27.05
27.92
29.14
30.29
30.97
30.91
30.09
28.66
26.87
24.96
23.02
21.04
18.94
16.69
14.31
11.92
9.67
7.67
5.94
4.41
2.94
1.37
-0.42
-2.45
-4.64
-6.87
-8.95
-10.78
-12.31
-13.63
-14.94
-16.44
-18.28
-20.54
-23.15
-25.98
-28.87
-31.73
-34.59
-37.67
-41.30
-45.77
-51.10
-56.80
-61.77
-64.54
-63.66
-58.26
-48.45
-35.29
-20.54
-6.04
6.76
17.09
24.78
30.04
33.26
34.78
34.97
34.13
32.63
30.81
28.95
27.23
25.76
24.61
23.84
23.52
23.67
24.26
25.18
26.23
27.18
27.82
28.04
27.75
26.99
25.82
24.34
22.65
20.83
18.93
16.99
14.98
12.82
10.49
7.96
5.29
2.58
-0.06
-2.52
-4.74
-6.71
-8.48
-10.17
-11.94
-13.96
-16.32
-19.00
-21.84
-24.66
-27.26
-29.58
-31.69
-33.89
-36.57
-40.16
-44.97
-50.93
-57.47
-63.43
-67.28
-67.52
-63.12
-53.99
-41.01
-25.84
-10.42
3.56
14.99
23.46
29.12
32.46
34.07
34.50
34.21
33.57
32.79
32.00
31.18
30.24
29.07
27.67
26.12
24.68
23.62
23.21
23.55
24.49
25.75
26.87
27.48
27.31
26.30
24.59
22.44
20.17
18.07
16.29
14.80
13.42
11.88
9.92
7.45
4.57
1.55
-1.31
-3.82
-6.02
-8.12
-10.40
-13.04
-16.05
-19.26
-22.45
-25.42
-28.10
-30.52
-32.87
-35.39
-38.34
-42.00
-46.51
-51.78
-57.38
-62.45
-65.78
-66.07
-62.27
-54.03
-41.86
-27.15
-11.77
2.43
14.08
22.64
28.28
31.64
33.46
34.31
34.51
34.16
33.34
32.18
30.89
29.70
28.76
28.08
27.55
27.03
26.47
25.95
25.62
25.61
25.88
26.21
26.23
25.63
24.26
22.18
19.64
16.91
14.15
11.43
8.72
5.95
3.10
0.18
-2.85
-5.99
-9.26
-12.59
-15.89
-18.98
-21.76
-24.21
-26.48
-28.85
-31.72
-35.47
-40.31
-46.14
-52.38
-57.97
-61.50
-61.62
-57.45
-48.94
-36.97
-23.09
-9.15
3.30
13.27
20.46
25.14
27.86
29.22
29.70
29.60
29.11
28.29
27.22
25.95
24.58
23.20
21.92
20.80
19.88
19.19
18.71
18.40
18.16
17.84
17.26
16.24
14.66
12.46
9.65
6.29
2.52
-1.52
-5.67
-9.76
-13.65
-17.24
-20.56
-23.71
-26.95
-30.61
-34.99
-40.24
-46.14
-51.99
-56.71
-58.99
-57.67
-52.16
-42.63
-30.05
-15.95
-1.98
10.54
20.82
28.70
34.45
38.45
40.97
42.13
41.96
40.59
38.31
35.59
32.91
30.62
28.82
27.40
26.14
24.89
23.61
22.39
21.29
20.30
19.27
17.96
16.15
13.72
10.71
7.27
3.63
0.03
-3.41
-6.62
-9.66
-12.66
-15.78
-19.25
-23.31
-28.16
-33.78
-39.87
-45.63
-49.92
-51.48
-49.34
-43.19
-33.55
-21.67
-9.10
2.69
12.72
20.56
26.22
29.88
31.76
32.07
31.04
29.01
26.44
23.79
21.40
19.43
17.89
16.73
15.91
15.47
15.46
15.86
16.54
17.24
17.67
17.56
16.82
15.50
13.80
11.93
10.11
8.43
6.83
5.15
3.10
0.47
-2.79
-6.52
-10.36
-13.95
-17.03
-19.58
-21.81
-24.15
-27.05
-30.83
-35.57
-40.88
-45.94
-49.56
-50.46
-47.65
-40.75
-30.21
-17.23
-3.44
9.48
20.24
28.15
33.11
35.49
35.88
34.88
33.03
30.73
28.35
26.18
24.44
23.23
22.47
22.00
21.64
21.30
21.09
21.15
21.61
22.38
23.19
23.66
23.47
22.50
20.86
18.78
16.53
14.31
12.13
9.90
7.44
4.68
1.66
-1.41
-4.26
-6.69
-8.67
-10.39
-12.18
-14.39
-17.20
-20.55
-24.14
-27.54
-30.41
-32.60
-34.27
-35.88
-38.00
-41.21
-45.84
-51.76
-58.25
-64.06
-67.58
-67.31
-62.30
-52.47
-38.81
-23.05
-7.27
6.74
17.84
25.69
30.63
33.33
34.52
34.75
34.45
33.86
33.13
32.36
31.56
30.72
29.81
28.85
27.91
27.10
26.55
26.35
26.51
26.95
27.48
27.90
27.97
27.53
26.52
24.97
23.02
20.81
18.50
16.20
14.01
12.00
10.20
8.60
7.16
5.78
4.36
2.80
1.04
-0.95
-3.12
-5.40
-7.64
-9.74
-11.66
-13.42
-15.19
-17.16
-19.48
-22.15
-25.05
-27.93
-30.55
-32.83
-34.84
-36.90
-39.45
-42.94
-47.62
-53.30
-59.24
-64.16
-66.54
-65.01
-58.85
-48.28
-34.43
-19.04
-4.04
9.03
19.22
26.29
30.53
32.52
32.92
32.32
31.14
29.67
28.15
26.71
25.47
24.48
23.73
23.14
22.62
22.14
21.78
21.67
21.92
22.53
23.30
23.91
23.99
23.32
21.87
19.83
17.48
15.12
12.92
10.92
9.10
7.41
5.85
4.45
3.26
2.26
1.43
0.66
-0.10
-0.94
-1.89
-3.04
-4.46
-6.26
-8.48
-11.05
-13.80
-16.49
-18.86
-20.83
-22.45
-24.00
-25.86
-28.44
-32.06
-36.82
-42.46
-48.28
-53.19
-55.89
-55.18
-50.36
-41.50
-29.45
-15.71
-1.96
10.30
20.08
27.02
31.22
33.08
33.10
31.79
29.60
26.99
24.40
22.19
20.60
19.68
19.30
19.29
19.47
19.74
20.08
20.50
20.98
21.42
21.65
21.51
20.88
19.74
18.15
16.25
14.22
12.14
10.08
7.96
5.72
3.24
0.48
-2.52
-5.67
-8.79
-11.75
-14.49
-17.04
-19.51
-22.04
-24.71
-27.48
-30.22
-32.73
-34.92
-36.81
-38.67
-40.92
-44.01
-48.27
-53.68
-59.72
-65.33
-69.10
-69.56
-65.69
-57.28
-45.05
-30.49
-15.41
-1.43
10.36
19.54
26.22
30.75
33.56
35.01
35.41
35.07
34.31
33.45
32.75
32.33
32.19
32.20
32.22
32.14
31.97
31.80
31.75
31.89
32.13
32.26
32.03
31.26
29.94
28.21
26.32
24.45
22.70
21.00
19.24
17.27
15.04
12.63
10.15
7.80
5.71
3.94
2.42
0.99
-0.58
-2.45
-4.72
-7.35
-10.19
-13.04
-15.67
-17.90
-19.70
-21.17
-22.64
-24.58
-27.52
-31.78
-37.24
-43.19
-48.30
-50.98
-49.80
-43.97
-33.67
-20.02
-4.75
10.25
23.44
33.84
41.11
45.40
47.15
46.91
45.28
42.84
40.12
37.53
35.35
33.67
32.36
31.26
30.18
29.06
27.99
27.16
26.76
26.88
27.40
28.01
28.33
28.03
26.99
25.25
22.97
20.32
17.38
14.07
10.28
5.91
1.04
-4.08
-9.01
-13.36
-16.89
-19.64
-21.86
-23.89
-25.99
-28.21
-30.36
-32.16
-33.35
-33.87
-33.90
-33.87
-34.37
-35.98
-39.09
-43.70
-49.21
-54.51
-58.08
-58.43
-54.56
-46.29
-34.41
-20.38
-6.02
7.02
17.60
25.13
29.61
31.36
30.93
28.97
26.07
22.72
19.26
15.89
12.68
9.73
7.15
5.16
3.89
3.40
3.56
4.19
5.02
5.85
6.48
6.73
6.39
5.28
3.29
0.42
-3.16
-7.20
-11.40
-15.47
-19.21
-22.53
-25.46
-28.19
-31.05
-34.42
-38.66
-43.94
-50.13
-56.68
-62.56
-66.40
-66.80
-62.75
-54.04
-41.51
-26.80
-11.99
1.09
11.31
18.40
22.77
25.14
26.17
26.30
25.75
24.65
23.16
21.56
20.10
18.98
18.23
17.75
17.34
16.86
16.34
15.95
15.94
16.47
17.48
18.61
19.36
19.22
17.88
15.32
11.82
7.80
3.73
-0.04
-3.33
-6.15
-8.71
-11.40
-14.70
-19.08
-24.86
-31.97
-39.82
-47.24
-52.65
-54.51
-51.83
-44.61
-33.92
-21.56
-9.50
0.80
8.67
14.21
17.94
20.37
21.85
22.51
22.37
21.50
20.08
18.30
16.35
14.35
12.36
10.37
8.42
6.59
5.09
4.20
4.16
5.03
6.59
8.34
9.68
10.07
9.28
7.41
4.82
1.95
-0.80
-3.25
-5.41
-7.48
-9.79
-12.76
-16.80
-22.31
-29.39
-37.75
-46.48
-54.18
-59.19
-60.06
-56.16
-47.82
-36.35
-23.56
-11.12
-0.11
9.08
16.63
22.92
28.22
32.63
36.08
38.49
39.83
40.15
39.52
38.04
35.82
33.00
29.83
26.59
23.61
21.15
19.36
18.26
17.69
17.37
16.95
16.11
14.59
12.25
9.04
5.03
0.45
-4.34
-8.92
-12.94
-16.28
-19.15
-22.05
-25.64
-30.51
-36.98
-44.87
-53.43
-61.37
-67.00
-68.66
-65.13
-56.12
-42.41
-25.67
-8.02
8.55
22.64
33.61
41.52
46.80
50.07
51.86
52.59
52.51
51.73
50.25
48.12
45.42
42.30
38.97
35.55
32.11
28.72
25.47
22.55
20.19
18.52
17.47
16.71
15.74
14.05
11.30
7.45
2.71
-2.46
-7.57
-12.22
-16.23
-19.71
-23.02
-26.75
-31.47
-37.61
-45.20
-53.68
-61.89
-68.18
-70.85
-68.56
-60.86
-48.37
-32.64
-15.72
0.41
14.35
25.46
33.75
39.64
43.67
46.29
47.84
48.51
48.42
47.61
46.11
43.94
41.24
38.21
35.12
32.22
29.75
27.79
26.32
25.13
23.96
22.47
20.45
17.83
14.74
11.35
7.82
4.16
0.29
-3.80
-8.05
-12.21
-16.03
-19.40
-22.48
-25.73
-29.79
-35.26
-42.45
-51.16
-60.55
-69.13
-75.00
-76.32
-71.84
-61.38
-45.98
-27.65
-8.82
8.38
22.58
33.34
40.99
46.23
49.82
52.30
53.92
54.74
54.73
53.83
52.07
49.55
46.44
42.94
39.27
35.66
32.33
29.51
27.38
25.99
25.18
24.65
24.02
22.99
21.37
19.21
16.67
13.92
11.12
8.29
5.42
2.42
-0.76
-4.18
-7.88
-11.88
-16.19
-20.74
-25.35
-29.82
-33.94
-37.63
-40.99
-44.33
-48.12
-52.85
-58.84
-66.02
-73.77
-80.87
-85.64
-86.37
-81.76
-71.47
-56.26
-37.86
-18.51
-0.32
15.21
27.44
36.42
42.68
46.93
49.80
51.78
53.17
54.10
54.56
54.45
53.63
52.04
49.76
47.01
44.15
41.56
39.54
38.23
37.59
37.44
37.47
37.37
36.88
35.85
34.24
32.15
29.73
27.19
24.72
22.42
20.34
18.42
16.54
14.50
12.13
9.32
6.04
2.41
-1.32
-4.86
-8.02
-10.73
-13.18
-15.70
-18.58
-21.99
-25.84
-29.83
-33.60
-36.88
-39.60
-41.96
-44.35
-47.26
-51.18
-56.41
-62.89
-69.99
-76.52
-80.84
-81.30
-76.70
-66.78
-52.33
-35.02
-16.94
-0.06
14.22
25.26
33.04
37.96
40.63
41.62
41.50
40.73
39.67
38.56
37.45
36.27
34.85
33.04
30.84
28.38
25.92
23.73
22.04
20.94
20.42
20.32
20.36
20.17
19.42
17.86
15.50
12.55
9.34
6.24
3.47
1.05
-1.19
-3.48
-6.01
-8.88
-12.07
-15.50
-19.01
-22.49
-25.79
-28.91
-31.95
-35.21
-39.08
-43.97
-50.04
-57.01
-64.08
-69.95
-73.06
-72.04
-66.08
-55.32
-40.84
-24.37
-7.89
6.97
19.18
28.42
34.87
38.99
41.28
42.18
42.09
41.38
40.36
39.25
38.10
36.81
35.20
33.08
30.42
27.33
24.11
21.10
18.66
16.99
16.08
15.74
15.62
15.30
14.44
12.82
10.41
7.38
4.04
0.69
-2.48
-5.45
-8.40
-11.52
-14.96
-18.68
-22.49
-26.14
-29.45
-32.42
-35.28
-38.42
-42.30
-47.29
-53.52
-60.70
-68.03
-74.19
-77.63
-76.88
-71.03
-60.10
-45.04
-27.59
-9.79
6.53
20.13
30.48
37.73
42.42
45.24
46.78
47.44
47.42
46.79
45.59
43.86
41.66
39.07
36.15
33.06
30.02
27.30
25.18
23.83
23.22
23.09
23.03
22.63
21.57
19.75
17.27
14.38
11.41
8.65
6.27
4.24
2.36
0.30
-2.26
-5.51
-9.41
-13.74
-18.16
-22.34
-26.08
-29.37
-32.44
-35.72
-39.72
-44.90
-51.43
-58.92
-66.40
-72.33
-74.92
-72.70
-64.92
-51.98
-35.37
-17.25
0.12
14.96
26.41
34.45
39.63
42.72
44.37
44.97
44.79
44.01
42.79
41.30
39.54
37.46
34.94
31.95
28.66
25.40
22.57
20.51
19.37
19.04
19.25
19.59
19.68
19.19
17.91
15.85
13.19
10.25
7.39
4.89
2.89
1.24
-0.37
-2.32
-4.94
-8.36
-12.41
-16.72
-20.80
-24.26
-27.00
-29.25
-31.58
-34.66
-39.05
-45.00
-52.20
-59.76
-66.29
-70.14
-69.77
-64.22
-53.45
-38.45
-21.02
-3.34
12.61
25.52
34.89
40.91
44.20
45.46
45.30
44.20
42.51
40.54
38.47
36.40
34.35
32.21
29.92
27.50
25.10
22.94
21.24
20.13
19.51
19.11
18.54
17.46
15.69
13.27
10.50
7.73
5.26
3.21
1.46
-0.27
-2.32
-4.97
-8.34
-12.37
-16.82
-21.34
-25.61
-29.41
-32.75
-35.83
-39.07
-42.95
-47.89
-54.06
-61.19
-68.50
-74.60
-77.83
-76.56
-69.83
-57.68
-41.31
-22.77
-4.43
11.75
24.56
33.71
39.59
42.93
44.52
44.98
44.78
44.19
43.34
42.25
40.85
39.05
36.83
34.30
31.68
29.24
27.20
25.69
24.66
23.97
23.45
22.90
22.23
21.39
20.35
19.11
17.59
15.75
13.54
11.05
8.41
5.77
3.27
0.90
-1.42
-3.90
-6.75
-10.17
-14.23
-18.84
-23.74
-28.55
-32.95
-36.74
-40.02
-43.15
-46.71
-51.28
-57.23
-64.50
-72.43
-79.79
-84.87
-85.92
-81.56
-71.31
-55.84
-36.88
-16.80
2.07
17.95
29.97
38.13
43.04
45.55
46.51
46.54
46.05
45.27
44.26
43.01
41.49
39.67
37.55
35.19
32.67
30.16
27.87
26.08
24.99
24.68
24.97
25.47
25.74
25.41
24.38
22.76
20.86
18.97
17.26
15.73
14.26
12.65
10.72
8.37
5.59
2.44
-0.92
-4.26
-7.37
-10.11
-12.52
-14.80
-17.25
-20.16
-23.64
-27.55
-31.55
-35.27
-38.53
-41.41
-44.35
-47.94
-52.71
-58.85
-66.13
-73.76
-80.45
-84.69
-84.95
-80.13
-69.96
-55.12
-37.18
-18.21
-0.30
15.00
26.85
35.17
40.36
43.10
44.04
43.77
42.75
41.31
39.65
37.85
35.88
33.68
31.29
28.88
26.70
25.03
23.98
23.50
23.37
23.27
22.97
22.37
21.52
20.55
19.56
18.56
17.44
16.07
14.34
12.26
9.90
7.43
5.00
2.70
0.51
-1.65
-3.92
-6.48
-9.43
-12.79
-16.43
-20.18
-23.84
-27.33
-30.73
-34.33
-38.53
-43.72
-50.09
-57.39
-64.84
-71.10
-74.56
-73.74
-67.73
-56.61
-41.45
-24.04
-6.43
9.59
22.85
32.85
39.67
43.72
45.60
45.88
45.13
43.80
42.22
40.55
38.84
37.01
34.99
32.73
30.34
28.02
26.02
24.52
23.52
22.83
22.09
20.96
19.28
17.14
14.85
12.78
11.15
9.94
8.90
7.73
6.18
4.21
1.94
-0.46
-2.91
-5.48
-8.37
-11.81
-15.93
-20.67
-25.77
-30.89
-35.71
-39.99
-43.71
-47.08
-50.52
-54.56
-59.69
-66.12
-73.44
-80.57
-85.78
-87.18
-83.26
-73.46
-58.44
-39.89
-20.02
-0.95
15.76
29.35
39.67
46.96
51.63
54.10
54.78
54.16
52.76
51.13
49.66
48.54
47.65
46.71
45.35
43.39
40.93
38.32
36.05
34.47
33.67
33.40
33.22
32.66
31.43
29.50
27.08
24.53
22.18
20.22
18.61
17.16
15.64
13.83
11.72
9.39
7.01
4.72
2.60
0.62
-1.28
-3.27
-5.54
-8.31
-11.68
-15.64
-19.93
-24.14
-27.88
-30.96
-33.47
-35.83
-38.58
-42.32
-47.46
-54.04
-61.61
-69.12
-75.00
-77.45
-75.00
-67.00
-53.91
-37.27
-19.20
-1.85
13.14
24.95
33.49
39.15
42.57
44.35
45.04
45.06
44.71
44.20
43.54
42.62
41.23
39.23
36.64
33.71
30.89
28.65
27.31
26.92
27.28
27.99
28.61
28.77
28.25
27.04
25.28
23.27
21.33
19.67
18.32
17.09
15.72
13.99
11.88
9.48
6.92
4.30
1.69
-0.90
-3.39
-5.68
-7.76
-9.74
-11.83
-14.29
-17.26
-20.69
-24.36
-27.95
-31.14
-33.81
-36.11
-38.46
-41.43
-45.52
-50.90
-57.19
-63.40
-68.13
-69.89
-67.45
-60.24
-48.53
-33.42
-16.60
-0.01
14.69
26.41
34.80
40.14
43.04
44.12
43.88
42.67
40.75
38.43
36.01
33.73
31.70
29.87
28.13
26.38
24.63
22.98
21.60
20.63
20.12
20.00
20.03
19.93
19.40
18.22
16.34
13.89
