1629150303.00
64.000000
-0.00
-0.00
-0.00
-0.00
-0.00
-0.00
-0.00
-0.00
-0.00
-0.00
0.00
0.01
0.01
-0.00
-0.03
-0.05
-0.05
0.00
0.13
0.36
0.66
1.01
1.37
1.72
2.06
2.40
2.79
3.24
3.80
4.42
5.06
5.66
6.20
6.68
7.15
7.68
8.31
9.14
10.09
11.04
11.88
12.56
13.14
13.76
14.65
15.96
17.91
20.32
22.90
25.38
27.58
29.57
31.68
34.32
37.81
42.54
48.15
54.10
59.83
64.97
69.58
74.14
79.34
85.71
93.76
103.00
112.62
121.73
129.77
136.75
143.30
150.75
157.77
166.64
177.95
191.79
206.97
220.57
228.25
225.36
208.53
176.87
132.76
80.05
23.07
-34.94
-92.44
-149.16
-205.23
-260.37
-313.74
-363.87
-409.83
-450.91
-486.50
-515.74
-537.23
-549.22
-549.96
-538.37
-514.21
-478.67
-433.88
-382.45
-327.02
-269.84
-212.63
-156.66
-102.95
-52.37
-5.90
35.58
71.43
101.35
125.50
144.38
158.69
169.15
176.37
180.75
182.57
182.07
179.51
175.24
169.65
163.18
156.14
148.80
141.29
133.70
126.04
118.37
110.71
103.15
95.73
88.53
81.59
74.94
68.62
62.62
56.94
51.56
46.47
41.66
37.13
32.90
29.00
25.44
22.20
19.26
16.56
14.05
11.72
9.56
7.65
6.01
4.70
3.68
2.86
2.09
1.26
0.31
-0.70
-1.64
-2.34
-2.70
-2.75
-2.68
-2.74
-3.18
-4.08
-5.30
-6.55
-7.46
-7.81
-7.63
-7.22
-7.05
-7.50
-8.73
-10.52
-12.40
-13.84
-14.52
-14.44
-13.95
-13.55
-13.69
-14.69
-16.72
-19.76
-23.41
-26.73
-28.23
-26.28
-19.92
-9.43
3.43
16.01
25.72
31.14
32.37
30.74
27.96
25.33
23.32
21.82
20.53
19.38
18.54
18.17
18.20
18.28
17.93
16.78
14.82
12.42
10.24
8.91
8.82
9.83
11.42
12.88
13.54
13.13
11.90
10.56
10.01
11.02
13.88
18.26
23.28
27.78
30.71
31.45
29.93
26.50
21.93
16.65
11.01
5.26
-0.41
-5.82
-10.67
-14.74
-17.87
-19.97
-21.07
-21.22
-20.58
-19.41
-18.00
-16.72
-15.83
-15.49
-15.68
-16.29
-17.07
-17.73
-18.05
-17.91
-17.28
-16.29
-15.22
-14.36
-13.97
-14.13
-14.54
-14.72
-14.00
-11.81
-8.05
-3.04
2.43
7.39
11.12
13.26
13.85
13.12
11.34
8.75
5.59
2.22
-0.91
-3.28
-4.64
-5.03
-4.75
-4.25
-3.94
-4.05
-4.59
-5.51
-6.68
-8.02
-9.54
-11.25
-13.19
-15.35
-17.63
-19.86
-21.88
-23.60
-25.12
-26.72
-28.80
-31.76
-35.83
-40.92
-46.55
-51.92
-55.90
-57.34
-55.37
-49.60
-40.37
-28.62
-15.69
-2.92
8.64
18.34
25.95
31.50
35.22
37.41
38.45
38.74
38.66
38.43
38.13
37.71
37.03
36.02
34.71
33.17
31.52
29.86
28.24
26.65
24.96
22.97
20.44
17.20
13.22
8.72
4.04
-0.45
-4.54
-8.32
-12.17
-16.57
-21.95
-28.53
-36.25
-44.74
-53.29
-60.92
-66.44
-68.74
-67.08
-61.39
-52.37
-41.28
-29.54
-18.32
-8.24
0.60
8.43
15.48
21.89
27.65
32.74
37.26
41.46
45.65
50.07
54.71
59.32
63.46
66.68
68.67
69.38
69.00
67.87
66.30
64.39
61.93
58.56
53.88
47.76
40.44
32.43
24.37
16.71
9.74
3.50
-2.05
-6.99
-11.47
-15.81
-20.45
-25.88
-32.36
-39.76
-47.43
-54.30
-59.20
-61.10
-59.43
-54.33
-46.64
-37.71
-29.02
-21.76
-16.45
-12.96
-10.65
-8.79
-6.82
-4.31
-1.06
3.11
8.27
14.29
20.69
26.72
31.51
34.33
34.85
33.19
29.87
25.64
21.23
17.17
13.65
10.53
7.55
4.52
1.50
-1.19
-3.17
-4.21
-4.44
-4.34
-4.58
-5.80
-8.41
-12.47
-17.65
-23.25
-28.25
-31.58
-32.29
-29.93
-24.67
-17.21
-8.61
0.02
7.90
14.56
19.89
23.97
26.97
28.99
30.08
30.29
29.72
28.62
27.28
26.01
24.95
24.04
23.01
21.54
19.43
16.70
13.61
10.51
7.67
5.13
2.74
0.26
-2.50
-5.49
-8.45
-11.03
-13.00
-14.36
-15.44
-16.75
-18.82
-22.00
-26.44
-32.00
-38.29
-44.63
-50.16
-53.80
-54.59
-51.86
-45.52
-36.09
-24.63
-12.39
-0.55
10.07
19.05
26.32
31.98
36.17
38.96
40.47
40.87
40.49
39.78
39.17
38.99
39.22
39.59
39.67
39.05
37.53
35.15
32.15
28.82
25.34
21.80
18.19
14.44
10.46
6.18
1.55
-3.40
-8.59
-13.82
-18.87
-23.55
-27.76
-31.60
-35.29
-39.15
-43.47
-48.43
-54.00
-59.80
-65.12
-68.98
-70.44
-68.80
-63.94
-56.37
-47.02
-37.07
-27.58
-19.42
-13.03
-8.57
-5.87
-4.58
-4.25
-4.43
-4.72
-4.83
-4.52
-3.64
-2.21
-0.39
1.49
3.08
4.20
4.91
5.49
6.29
7.51
8.96
10.28
11.07
11.22
10.98
10.81
11.15
12.08
13.23
13.88
13.22
10.59
5.72
-1.10
-9.07
-17.01
-23.59
-27.56
-28.13
-25.13
-19.05
-10.90
-1.84
7.20
15.71
23.59
30.89
37.57
43.33
47.69
50.21
50.73
49.44
46.89
43.76
40.74
38.31
36.73
36.09
36.30
37.23
38.68
40.47
42.28
43.74
44.41
43.88
41.86
38.27
33.33
27.37
20.79
13.89
6.94
0.12
-6.40
-12.53
-18.28
-23.88
-29.67
-35.96
-42.83
-49.88
-56.27
-60.83
-62.47
-60.49
-54.84
-46.14
-35.44
-23.86
-12.37
-1.74
7.46
14.81
20.02
23.18
24.66
25.23
25.66
26.49
27.85
29.50
30.95
31.72
31.42
29.86
27.12
23.55
19.73
16.31
13.77
12.18
11.14
9.95
7.94
4.76
0.38
-4.89
-10.58
-16.24
-21.39
-25.71
-29.01
-31.47
-33.57
-36.01
-39.36
-43.65
-48.24
-51.91
-53.26
-51.18
-45.28
-35.96
-24.31
-11.75
0.39
11.11
19.83
26.40
30.90
33.52
34.52
34.21
32.95
31.20
29.40
27.92
26.91
26.31
25.90
25.41
24.70
23.84
23.10
22.76
22.98
23.68
24.51
25.01
24.79
23.75
22.01
19.94
17.92
16.27
15.11
14.37
13.87
13.36
12.55
11.24
9.36
7.08
4.93
3.72
4.32
7.34
12.77
19.86
27.26
33.48
37.33
38.29
36.57
32.95
28.42
23.83
19.69
16.22
13.36
10.91
8.59
6.03
2.82
-1.39
-6.83
-13.45
-20.90
-28.64
-36.02
-42.56
-48.04
-52.52
-56.26
-59.60
-62.78
-65.88
-68.79
-71.27
-73.04
-73.98
-74.20
-74.11
-74.30
-75.29
-77.31
-80.05
-82.57
-83.57
-81.72
-76.08
-66.46
-53.53
-38.58
-23.09
-8.27
5.28
17.61
29.17
40.41
51.45
61.93
71.11
78.12
82.24
83.11
80.82
75.87
69.13
61.56
54.15
47.67
42.66
39.29
37.48
36.84
36.71
36.17
34.17
29.88
22.86
13.31
1.99
-10.13
-22.29
-34.27
-46.38
-59.28
-73.49
-89.09
-105.45
-121.26
-134.66
-143.56
-146.07
-141.06
-128.63
-110.23
-88.45
-66.15
-45.60
-27.88
-12.81
0.55
13.12
25.12
36.05
44.97
51.06
54.03
54.21
52.30
49.04
45.02
40.55
35.83
31.03
26.30
21.82
17.65
13.75
10.02
6.32
2.58
-1.25
-5.12
-9.00
-12.73
-16.13
-18.98
-21.11
-22.50
-23.38
-24.24
-25.65
-28.16
-32.10
-37.53
-44.17
-51.34
-58.03
-62.97
-64.91
-62.89
-56.63
-46.69
-34.37
-21.28
-8.95
1.56
9.89
16.24
21.12
25.09
28.57
31.70
34.40
36.54
37.95
38.63
38.70
38.36
37.83
37.21
36.54
35.80
35.00
34.14
33.22
32.19
30.89
29.17
26.94
24.14
20.83
17.15
13.30
9.42
5.63
1.98
-1.56
-5.05
-8.50
-11.96
-15.56
-19.58
-24.42
-30.40
-37.45
-45.01
-51.90
-56.73
-58.22
-55.64
-48.97
-38.89
-26.64
-13.69
-1.50
8.88
16.98
22.92
27.29
30.74
33.70
36.21
38.07
39.05
39.17
38.54
37.42
36.01
34.45
32.85
31.41
30.36
29.79
29.61
29.55
29.23
28.31
26.51
23.66
19.72
14.91
9.66
4.60
0.32
-2.87
-5.07
-6.74
-8.49
-10.78
-13.93
-18.08
-23.22
-29.23
-35.76
-42.09
-47.15
-49.77
-49.03
-44.58
-36.79
-26.59
-15.26
-4.02
6.19
14.78
21.54
26.50
29.82
31.70
32.38
32.12
31.21
30.06
29.05
28.48
28.45
28.81
29.24
29.37
28.95
27.93
26.47
24.78
23.03
21.21
19.17
16.71
13.67
10.04
5.95
1.62
-2.73
-6.91
-10.82
-14.46
-17.92
-21.40
-25.19
-29.58
-34.72
-40.42
-46.09
-50.72
-53.14
-52.34
-47.89
-40.05
-29.76
-18.35
-7.09
3.04
11.53
18.30
23.47
27.24
29.82
31.36
32.06
32.13
31.83
31.39
30.97
30.67
30.51
30.43
30.28
29.94
29.33
28.39
27.21
25.88
24.42
22.71
20.42
17.20
12.89
7.70
2.21
-2.83
-6.84
-9.72
-11.79
-13.69
-16.04
-19.25
-23.54
-28.91
-35.16
-41.79
-47.91
-52.33
-53.79
-51.46
-45.26
-35.92
-24.73
-13.13
-2.39
6.64
13.63
18.64
21.99
24.17
25.57
26.44
26.88
26.94
26.69
26.37
26.14
26.04
25.92
25.51
24.63
23.34
21.89
20.66
19.83
19.26
18.53
17.17
14.76
11.18
6.68
1.80
-2.83
-6.67
-9.45
-11.33
-12.77
-14.40
-16.75
-20.17
-24.80
-30.52
-36.83
-42.90
-47.56
-49.56
-48.00
-42.67
-34.20
-23.87
-13.22
-3.45
4.73
11.18
16.04
19.48
21.60
22.47
22.27
21.37
20.24
19.32
18.82
18.79
18.98
19.10
18.97
18.49
17.77
16.90
15.92
14.73
13.12
10.88
7.90
4.25
0.21
-3.82
-7.46
-10.51
-12.95
-14.96
-16.87
-19.10
-22.03
-25.91
-30.72
-36.02
-40.89
-44.19
-44.80
-42.07
-36.07
-27.55
-17.74
-7.90
0.97
8.31
13.91
17.77
20.00
20.80
20.48
19.47
18.24
17.23
16.71
16.70
17.03
17.44
17.61
17.30
16.36
14.77
12.62
10.12
7.47
4.83
2.24
-0.36
-3.08
-5.98
-9.06
-12.24
-15.49
-18.88
-22.53
-26.62
-31.30
-36.59
-42.34
-48.14
-53.29
-56.85
-57.82
-55.44
-49.60
-40.92
-30.65
-20.17
-10.55
-2.20
4.99
11.31
16.85
21.35
24.40
25.73
25.50
24.35
23.12
22.56
23.04
24.50
26.51
28.46
29.83
30.29
29.81
28.58
26.89
24.94
22.72
20.10
16.91
13.19
9.25
5.51
2.30
-0.32
-2.61
-5.05
-8.08
-11.96
-16.73
-22.32
-28.56
-35.14
-41.53
-46.92
-50.28
-50.60
-47.33
-40.64
-31.47
-21.29
-11.61
-3.46
2.97
8.21
13.11
18.28
23.74
28.94
33.08
35.61
36.55
36.38
35.83
35.44
35.36
35.47
35.54
35.49
35.33
35.14
34.88
34.30
33.09
31.00
28.05
24.54
21.00
17.99
15.88
14.64
13.90
12.99
11.24
8.28
4.12
-0.85
-6.14
-11.33
-16.29
-21.15
-26.19
-31.65
-37.56
-43.68
-49.41
-53.88
-56.10
-55.24
-50.93
-43.42
-33.62
-22.75
-11.98
-2.15
6.36
13.54
19.52
24.37
28.10
30.73
32.37
33.23
33.57
33.61
33.44
33.07
32.50
31.78
30.99
30.27
29.65
29.07
28.37
27.42
26.13
24.57
22.92
21.39
20.06
18.89
17.63
15.99
13.67
10.48
6.46
1.87
-2.95
-7.57
-11.76
-15.49
-18.99
-22.62
-26.79
-31.69
-37.24
-42.91
-47.88
-51.16
-51.87
-49.42
-43.79
-35.57
-25.78
-15.64
-6.21
1.90
8.53
13.80
17.91
20.96
22.96
23.92
24.03
23.66
23.27
23.23
23.66
24.42
25.21
25.71
25.71
25.12
23.99
22.47
20.76
19.02
17.32
15.63
13.82
11.76
9.38
6.73
3.92
1.08
-1.67
-4.19
-6.36
-8.16
-9.67
-11.24
-13.32
-16.39
-20.71
-26.13
-32.09
-37.68
-41.84
-43.67
-42.55
-38.36
-31.58
-23.06
-13.95
-5.30
2.15
8.08
12.53
15.77
18.11
19.82
21.11
22.07
22.72
23.02
22.88
22.30
21.39
20.40
19.59
19.12
18.94
18.86
18.63
18.07
17.12
15.74
13.91
11.63
8.94
5.95
2.86
-0.10
-2.84
-5.31
-7.55
-9.61
-11.54
-13.43
-15.45
-17.85
-20.94
-24.96
-29.93
-35.52
-41.06
-45.58
-48.11
-47.88
-44.58
-38.41
-30.12
-20.75
-11.42
-3.06
3.81
9.09
13.05
16.11
18.63
20.76
22.40
23.32
23.39
22.70
21.52
20.25
19.20
18.54
18.26
18.30
18.58
18.94
19.15
18.94
18.05
16.37
14.00
11.21
8.30
5.55
3.07
0.92
-0.96
-2.68
-4.38
-6.26
-8.50
-11.17
-14.30
-17.84
-21.75
-26.03
-30.79
-36.07
-41.81
-47.64
-52.93
-56.80
-58.36
-56.97
-52.49
-45.29
-36.24
-26.38
-16.68
-7.71
0.30
7.31
13.32
18.19
21.67
23.60
24.10
23.60
22.70
21.98
21.83
22.35
23.39
24.70
25.99
26.97
27.39
27.10
26.04
24.30
22.06
19.54
16.88
14.14
11.33
8.49
5.63
2.78
-0.08
-3.06
-6.24
-9.65
-13.21
-16.75
-20.13
-23.30
-26.38
-29.64
-33.42
-37.83
-42.63
-47.08
-50.09
-50.52
-47.66
-41.48
-32.72
-22.58
-12.32
-2.90
5.20
11.89
17.24
21.33
24.16
25.72
26.08
25.49
24.33
23.10
22.28
22.11
22.59
23.47
24.33
24.80
24.62
23.75
22.30
20.47
18.41
16.24
14.02
11.70
9.21
6.46
3.40
0.07
-3.39
-6.80
-10.04
-13.08
-16.04
-19.14
-22.62
-26.66
-31.35
-36.52
-41.69
-46.08
-48.73
-48.82
-45.89
-40.04
-31.92
-22.38
-12.33
-2.54
6.39
14.03
20.04
24.22
26.56
27.26
26.71
25.37
23.76
22.35
21.50
21.40
22.02
23.07
24.14
24.75
24.58
23.52
21.65
19.21
16.48
13.75
11.28
9.17
7.32
5.44
3.19
0.29
-3.26
-7.23
-11.23
-14.94
-18.30
-21.44
-24.65
-28.29
-32.63
-37.82
-43.78
-50.06
-55.74
-59.55
-60.24
-57.02
-49.92
-39.80
-28.07
-16.21
-5.33
4.00
11.64
17.75
22.46
25.86
27.99
28.97
29.02
28.51
27.87
27.51
27.64
28.23
29.03
29.64
29.73
29.14
27.97
26.47
24.90
23.43
22.00
20.37
18.24
15.43
11.90
7.87
3.64
-0.51
-4.46
-8.26
-12.05
-16.00
-20.23
-24.83
-29.89
-35.40
-41.14
-46.52
-50.60
-52.30
-50.81
-45.90
-38.08
-28.35
-17.89
-7.71
1.52
9.49
16.04
21.08
24.59
26.61
27.32
27.04
26.20
25.30
24.79
24.97
25.85
27.13
28.27
28.71
28.15
26.60
24.42
22.06
19.92
18.15
16.64
15.11
13.22
10.73
7.55
3.79
-0.26
-4.24
-7.87
-11.05
-13.88
-16.55
-19.33
-22.43
-26.03
-30.19
-34.74
-39.23
-42.83
-44.51
-43.38
-38.94
-31.42
-21.62
-10.80
-0.23
9.05
16.46
21.77
25.10
26.72
26.96
26.19
24.81
23.27
22.08
21.70
22.28
23.59
25.06
25.95
25.77
24.41
22.22
19.76
17.51
15.64
14.05
12.41
10.43
7.95
5.03
1.80
-1.53
-4.84
-8.09
-11.37
-14.83
-18.59
-22.63
-26.79
-30.85
-34.56
-37.71
-40.02
-41.04
-40.24
-37.11
-31.51
-23.77
-14.80
-5.61
2.88
10.11
15.90
20.21
23.04
24.33
24.13
22.70
20.59
18.50
16.99
16.41
16.67
17.42
18.21
18.68
18.64
18.05
16.99
15.46
13.41
10.75
7.53
4.03
0.75
-1.85
-3.58
-4.66
-5.70
-7.34
-10.01
-13.78
-18.41
-23.50
-28.62
-33.27
-36.71
-38.16
-36.90
-32.66
-25.80
-17.20
-8.00
0.84
8.72
15.36
20.65
24.57
27.11
28.29
28.25
27.17
25.29
22.82
20.07
17.32
14.86
12.90
11.48
10.56
10.04
9.83
9.78
9.67
9.12
7.77
5.33
1.81
-2.45
-6.95
-11.17
-14.72
-17.47
-19.65
-21.73
-24.24
-27.64
-31.95
-36.68
-40.88
-43.39
-43.25
-39.96
-33.55
-24.63
-14.18
-3.43
6.43
14.42
19.99
23.09
24.13
23.75
22.67
21.43
20.45
20.02
20.25
21.06
22.20
23.21
23.68
23.31
22.02
19.94
17.21
13.92
10.21
6.23
2.21
-1.71
-5.41
-9.04
-12.77
-16.80
-21.24
-26.15
-31.61
-37.65
-44.13
-50.58
-56.16
-59.80
-60.55
-57.91
-52.03
-43.66
-33.94
-24.01
-14.78
-6.85
-0.34
4.87
9.07
12.47
15.19
17.23
18.51
19.06
19.03
18.68
18.29
18.11
18.37
19.15
20.39
21.79
22.84
22.90
21.50
18.52
14.23
9.21
4.10
-0.57
-4.53
-7.72
-10.27
-12.52
-14.99
-18.32
-22.98
-29.05
-35.95
-42.49
-47.17
-48.67
-46.17
-39.65
-29.96
-18.52
-6.89
3.52
11.86
17.94
22.03
24.65
26.28
27.23
27.76
28.11
28.52
29.16
29.98
30.63
30.71
29.91
28.24
26.05
23.81
21.85
20.27
18.86
17.28
15.24
12.57
9.26
5.44
1.36
-2.74
-6.63
-10.23
-13.67
-17.16
-20.95
-25.25
-30.07
-35.13
-39.89
-43.52
-45.10
-43.90
-39.65
-32.70
-23.96
-14.57
-5.52
2.57
9.52
15.38
20.19
23.92
26.49
27.88
28.29
28.07
27.66
27.44
27.60
28.08
28.65
28.94
28.66
27.62
25.89
23.64
21.12
18.43
15.53
12.33
8.80
5.03
1.23
-2.42
-5.84
-9.17
-12.65
-16.59
-21.22
-26.65
-32.74
-39.03
-44.75
-48.90
-50.51
-48.95
-44.12
-36.52
-27.09
-16.91
-6.91
2.26
10.22
16.83
22.09
26.02
28.76
30.45
31.31
31.60
31.54
31.34
31.12
30.89
30.62
30.23
29.68
28.95
28.03
26.94
25.58
23.85
21.59
18.74
15.30
11.48
7.55
3.81
0.50
-2.39
-5.08
-7.92
-11.29
-15.42
-20.31
-25.66
-30.94
-35.47
-38.45
-39.12
-36.95
-31.84
-24.26
-15.16
-5.79
2.76
9.83
15.25
19.19
21.86
23.42
23.94
23.54
22.50
21.20
19.98
18.96
18.05
17.07
15.90
14.64
13.49
12.64
12.13
11.81
11.37
10.48
8.92
6.66
3.85
0.74
-2.35
-5.22
-7.75
-10.05
-12.28
-14.74
-17.74
-21.52
-26.06
-31.03
-35.66
-38.88
-39.63
-37.22
-31.60
-23.45
-13.86
-4.07
4.94
12.48
18.24
22.13
24.24
24.85
24.35
23.28
22.11
21.20
20.72
20.66
20.84
21.05
21.08
20.71
19.81
18.35
16.40
14.08
11.53
8.78
5.82
2.61
-0.77
-4.13
-7.23
-9.89
-12.18
-14.46
-17.25
-21.07
-26.07
-31.97
-37.95
-42.91
-45.72
-45.56
-42.11
-35.64
-26.98
-17.24
-7.60
1.02
8.03
13.28
16.94
19.25
20.52
21.00
20.92
20.56
20.21
20.11
20.38
20.94
21.63
22.19
22.36
21.92
20.78
18.92
16.51
13.78
10.92
8.06
5.14
2.06
-1.25
-4.69
-8.03
-11.03
-13.69
-16.35
-19.53
-23.69
-28.84
-34.32
-38.94
-41.37
-40.65
-36.50
-29.43
-20.49
-10.90
-1.76
6.20
12.58
17.30
20.43
22.13
22.57
21.98
20.62
18.89
17.21
15.97
15.36
15.33
15.60
15.78
15.57
14.80
13.53
11.83
9.74
7.37
4.81
2.20
-0.33
-2.72
-5.05
-7.49
-10.23
-13.40
-17.06
-21.21
-25.74
-30.28
-34.16
-36.48
-36.34
-33.18
-27.11
-18.90
-9.77
-0.96
6.56
12.39
16.52
19.30
21.16
22.37
23.02
23.08
22.46
21.21
19.50
17.69
16.09
14.92
14.21
13.86
13.70
13.48
12.90
11.68
9.53
6.36
2.35
-2.14
-6.61
-10.74
-14.42
-17.75
-20.96
-24.29
-28.00
-32.24
-36.97
-41.77
-45.82
-47.95
-47.06
-42.57
-34.74
-24.62
-13.67
-3.32
5.50
12.44
17.62
21.32
23.79
25.22
25.81
25.79
25.42
24.96
24.49
23.96
23.25
22.26
21.02
19.66
18.31
17.00
15.65
14.14
12.32
10.10
7.47
4.46
1.15
-2.34
-5.89
-9.35
-12.71
-16.16
-20.01
-24.64
-30.15
-36.15
-41.71
-45.64
-46.86
-44.80
-39.64
-32.21
-23.61
-14.95
-6.98
-0.03
5.92
11.06
15.55
19.46
22.66
25.00
26.29
26.55
25.97
24.89
23.65
22.47
21.37
20.39
19.56
18.99
18.74
18.74
18.65
18.03
16.44
13.73
10.05
5.76
1.36
-2.69
-6.03
-8.53
-10.32
-11.76
-13.44
-15.98
-19.83
-25.03
-31.19
-37.49
-42.82
-46.03
-46.15
-42.72
-35.94
-26.70
-16.38
-6.38
2.26
9.12
14.36
18.43
21.73
24.51
26.81
28.54
29.60
29.94
29.60
28.70
27.42
26.01
24.65
23.44
22.35
21.36
20.45
19.63
18.85
17.97
16.67
14.63
11.67
7.88
3.61
-0.76
-4.89
-8.65
-12.07
-15.23
-18.24
-21.24
-24.44
-28.09
-32.45
-37.66
-43.60
-49.84
-55.68
-60.20
-62.50
-61.88
-58.02
-51.19
-42.19
-32.17
-22.31
-13.58
-6.54
-1.34
2.11
4.08
4.82
4.57
3.61
2.27
0.95
0.03
-0.18
0.41
1.71
3.52
5.59
7.70
9.77
11.81
13.93
16.23
18.77
21.43
23.94
25.89
26.88
26.60
24.97
22.16
18.43
14.11
9.40
4.34
-1.12
-7.11
-13.71
-20.88
-28.40
-35.72
-41.99
-46.29
-47.77
-46.03
-41.25
-34.24
-26.15
-18.14
-11.07
-5.34
-0.89
2.51
5.06
6.79
7.64
7.59
6.87
5.94
5.41
5.78
7.30
9.87
13.16
16.73
20.22
23.36
25.94
27.83
28.96
29.36
29.15
28.47
27.51
26.37
25.16
23.98
22.95
22.12
21.42
20.69
19.71
18.25
16.18
13.39
9.79
5.35
0.15
-5.48
-10.90
-15.33
-17.99
-18.36
-16.30
-12.06
-6.16
0.75
7.97
14.91
21.04
25.99
29.52
31.43
31.69
30.46
28.18
25.52
23.31
22.24
22.67
24.57
27.58
31.26
35.17
38.88
42.04
44.35
45.65
45.92
45.32
44.02
42.07
39.40
35.90
31.56
26.57
21.21
15.69
10.10
4.35
-1.60
-7.72
-13.88
-19.98
-25.93
-31.70
-37.09
-41.56
-44.44
-45.05
-43.05
-38.61
-32.47
-25.56
-18.76
-12.70
-7.68
-3.81
-1.10
0.39
0.56
-0.63
-2.94
-5.87
-8.69
-10.64
-11.29
-10.66
-9.16
-7.41
-5.96
-5.20
-5.28
-6.26
-8.03
-10.40
-12.98
-15.34
-17.10
-18.09
-18.43
-18.48
-18.65
-19.28
-20.66
-22.85
-25.68
-28.60
-30.71
-30.90
-28.28
-22.62
-14.50
-5.15
3.93
11.52
16.91
19.96
20.94
20.39
18.86
16.93
15.04
13.41
12.11
11.07
10.18
9.39
8.67
7.89
6.91
5.60
3.86
1.80
-0.44
-2.76
-5.19
-7.89
-10.99
-14.46
-18.17
-21.94
-25.65
-29.37
-33.33
-37.69
-42.41
-47.10
-50.99
-53.08
-52.50
-48.77
-42.06
-33.15
-23.20
-13.30
-4.21
3.81
10.76
16.67
21.52
25.15
27.46
28.56
28.69
28.16
27.27
26.23
25.23
24.41
23.86
23.58
23.42
23.12
22.41
21.02
18.72
15.40
11.09
6.08
0.87
-3.90
-7.78
-10.65
-12.91
-15.26
-18.46
-22.95
-28.72
-35.15
-41.17
-45.54
-47.09
-45.08
-39.45
-30.83
-20.43
-9.63
0.35
8.77
15.36
20.18
23.47
25.43
26.29
26.33
25.87
25.26
24.75
24.39
24.11
23.70
22.99
21.91
20.51
18.94
17.30
15.63
13.87
11.83
9.37
6.37
2.90
-0.83
-4.52
-7.92
-10.94
-13.71
-16.61
-20.05
-24.35
-29.48
-34.97
-39.98
-43.39
-44.16
-41.72
-36.11
-28.06
-18.67
-9.14
-0.39
7.08
13.18
17.99
21.67
24.23
25.63
25.83
24.88
23.03
20.64
18.15
15.96
14.28
13.17
12.50
12.04
11.52
10.68
9.29
7.13
4.16
0.52
-3.44
-7.26
-10.56
-13.16
-15.27
-17.30
-19.75
-23.00
-27.15
-31.92
-36.59
-40.13
-41.43
-39.57
-34.23
-25.88
-15.60
-4.81
5.21
13.59
19.90
24.04
26.08
26.28
25.02
22.94
20.73
18.95
17.93
17.66
17.87
18.21
18.27
17.71
16.32
14.15
11.42
8.58
6.02
3.95
2.31
0.82
-0.83
-2.89
-5.62
-9.20
-13.81
-19.50
-26.02
-32.76
-38.78
-43.06
-44.70
-43.22
-38.62
-31.45
-22.69
-13.54
-5.06
2.15
7.98
12.75
16.90
20.65
23.85
26.14
27.24
27.11
26.01
24.33
22.49
20.86
19.68
19.12
19.18
19.64
20.06
19.91
18.77
16.59
13.59
10.19
6.78
3.52
0.38
-2.80
-6.20
-9.94
-14.05
-18.52
-23.22
-27.86
-32.03
-35.15
-36.49
-35.36
-31.42
-24.73
-15.98
-6.26
3.21
11.42
17.83
22.29
24.90
25.84
25.27
23.49
20.94
18.28
16.16
15.00
14.85
15.39
16.09
16.39
15.76
13.83
10.50
5.98
0.80
-4.33
-8.78
-12.22
-14.71
-16.60
-18.36
-20.39
-23.10
-26.83
-31.78
-37.83
-44.40
-50.31
-54.15
-54.67
-51.16
-43.76
-33.36
-21.38
-9.45
1.00
9.03
14.34
17.28
18.65
19.34
20.03
21.04
22.33
23.73
25.09
26.25
27.13
27.64
27.78
27.58
27.22
26.88
26.66
26.52
26.30
25.80
24.86
23.27
20.86
17.56
13.42
8.69
3.75
-1.14
-5.92
-10.69
-15.50
-20.03
-23.52
-25.05
-23.91
-19.94
-13.59
-5.73
2.71
10.92
18.29
24.39
28.83
31.40
32.16
31.34
29.42
26.95
24.47
22.43
21.16
20.80
21.21
22.00
22.64
22.64
21.76
19.98
17.51
14.57
11.33
7.84
4.23
0.67
-2.59
-5.31
-7.48
-9.32
-11.34
-14.20
-18.41
-24.05
-30.49
-36.49
-40.49
-41.13
-37.76
-30.74
-21.22
-10.83
-1.08
7.00
12.95
16.83
19.02
20.02
20.34
20.44
20.62
21.11
21.97
23.11
24.34
25.36
25.88
25.74
24.95
23.74
22.43
21.25
20.21
19.12
17.60
15.39
12.47
8.97
5.13
1.12
-3.00
-7.32
-11.92
-16.84
-22.00
-27.17
-31.93
-35.71
-37.80
-37.66
-35.05
-30.16
-23.60
-16.19
-8.71
-1.77
4.24
9.04
12.49
14.49
15.08
14.52
13.16
11.46
9.88
8.69
8.04
7.86
7.99
8.19
8.26
8.00
7.34
6.18
4.43
2.04
-0.93
-4.30
-7.69
-10.77
-13.35
-15.49
-17.55
-19.98
-23.13
-27.17
-31.93
-36.90
-41.32
-44.24
-44.73
-42.17
-36.49
-28.26
-18.63
-8.90
-0.19
6.86
12.11
15.87
18.52
20.39
21.68
22.46
22.77
22.64
22.16
21.39
20.41
19.29
18.10
16.93
15.85
14.86
13.88
12.71
11.14
9.03
6.34
3.18
-0.20
-3.56
-6.78
-9.87
-13.02
-16.44
-20.33
-24.62
-28.99
-32.82
-35.32
-35.76
-33.61
-28.83
-21.85
-13.49
-4.79
3.32
10.15
15.40
19.07
21.35
22.49
22.70
22.14
20.90
19.09
16.87
14.47
12.11
9.99
8.14
6.50
4.91
3.19
1.21
-1.10
-3.70
-6.53
-9.46
-12.36
-15.10
-17.65
-20.06
-22.51
-25.29
-28.67
-32.72
-37.25
-41.67
-45.07
-46.43
-44.92
-40.18
-32.48
-22.74
-12.20
-2.12
6.61
13.53
18.60
21.97
23.84
24.33
23.62
22.02
19.99
18.12
16.86
16.43
16.74
17.38
17.88
17.79
16.79
14.81
12.01
8.69
5.24
2.01
-0.84
-3.38
-5.86
-8.65
-12.12
-16.53
-21.93
-28.06
-34.35
-39.85
-43.41
-43.90
-40.65
-33.66
-23.75
-12.34
-1.05
8.85
16.65
22.31
26.18
28.76
30.43
31.42
31.84
31.78
31.34
30.64
29.72
28.59
27.18
25.47
23.44
21.13
18.59
15.89
13.01
9.95
6.68
3.18
-0.55
-4.47
-8.54
-12.71
-16.98
-21.42
-26.16
-31.33
-36.91
-42.54
-47.50
-50.75
-51.25
-48.32
-41.93
-32.74
-21.96
-10.98
-0.95
7.45
14.10
19.21
23.05
25.80
27.49
28.08
27.65
26.48
24.97
23.57
22.56
21.96
21.60
21.27
20.74
19.85
18.44
16.36
13.52
9.98
5.98
1.93
-1.84
-5.15
-8.12
-11.03
-14.25
-18.08
-22.65
-27.92
-33.53
-38.79
-42.71
-44.15
-42.20
-36.56
-27.74
-16.95
-5.73
4.54
12.99
19.34
23.74
26.54
28.11
28.73
28.59
27.90
26.83
25.62
24.47
23.52
22.84
22.34
21.86
21.18
20.13
18.63
16.70
14.45
11.94
9.16
6.09
2.70
-0.95
-4.75
-8.57
-12.41
-16.40
-20.75
-25.57
-30.71
-35.69
-39.63
-41.52
-40.50
-36.19
-28.87
-19.48
-9.33
0.34
8.62
15.18
20.15
23.82
26.40
27.92
28.28
27.50
25.83
23.71
21.72
20.28
19.58
19.56
19.98
20.50
20.76
20.44
19.29
17.22
14.25
10.61
6.56
2.40
-1.63
-5.37
-8.73
-11.81
-14.78
-17.98
-21.74
-26.20
-31.18
-36.03
-39.80
-41.39
-40.01
-35.37
-27.85
-18.40
-8.23
1.48
9.87
16.47
21.13
23.98
25.22
25.16
24.16
22.69
21.25
20.25
19.88
20.11
20.66
21.20
21.37
20.98
19.92
18.19
15.89
13.12
10.03
6.73
3.33
-0.10
-3.48
-6.73
-9.80
-12.72
-15.67
-18.91
-22.77
-27.43
-32.76
-38.19
-42.74
-45.29
-44.88
-41.04
-34.00
-24.59
-14.06
-3.67
5.58
13.16
18.96
23.10
25.83
27.37
27.92
27.66
26.81
25.61
24.33
23.17
22.25
21.57
21.03
20.49
19.83
19.01
18.02
16.82
15.29
13.22
10.38
6.73
2.49
-1.91
-5.91
-9.14
-11.58
-13.55
-15.59
-18.25
-21.91
-26.69
-32.41
-38.52
-44.20
-48.32
-49.79
-47.89
-42.53
-34.33
-24.50
-14.37
-5.06
2.81
9.10
13.99
17.76
20.66
22.84
24.36
25.24
25.53
25.34
24.84
24.21
23.57
22.96
22.33
21.54
20.57
19.53
18.55
17.74
17.01
16.10
14.60
12.12
8.52
3.95
-1.07
-5.90
-9.88
-12.66
-14.33
-15.37
-16.51
-18.44
-21.57
-25.96
-31.26
-36.82
-41.71
-44.95
-45.61
-43.09
-37.32
-28.90
-18.93
-8.75
0.52
8.18
14.03
18.25
21.10
22.81
23.60
23.70
23.39
22.97
22.70
22.68
22.86
23.04
22.95
22.32
21.00
19.04
16.69
14.28
12.09
10.26
8.63
6.85
4.58
1.55
-2.22
-6.45
-10.69
-14.56
-17.82
-20.49
-22.86
-25.29
-28.16
-31.72
-35.97
-40.64
-45.18
-48.78
-50.55
-49.75
-45.99
-39.41
-30.70
-20.90
-11.08
-2.08
5.63
11.90
16.74
20.23
22.44
23.50
23.63
23.18
22.56
22.09
21.99
22.27
22.81
23.33
23.49
23.08
22.02
20.47
18.79
17.33
16.25
15.33
14.17
12.28
9.44
5.76
1.64
-2.44
-6.14
-9.37
-12.25
-15.02
-17.97
-21.36
-25.36
-29.99
-34.99
-39.79
-43.55
-45.40
-44.63
-40.98
-34.62
-26.15
-16.49
-6.67
2.32
9.73
15.17
18.57
20.20
20.50
19.94
18.97
18.04
17.47
17.51
18.18
19.30
20.49
21.32
21.42
20.62
18.99
16.83
14.50
12.39
10.71
9.41
8.25
6.78
4.65
1.69
-1.99
-6.06
-10.09
-13.73
-16.85
-19.50
-21.96
-24.61
-27.81
-31.78
-36.47
-41.41
-45.78
-48.53
-48.67
-45.59
-39.27
-30.32
-19.83
-9.04
0.97
9.49
16.27
21.40
25.07
27.48
28.74
29.00
28.50
27.63
26.88
26.63
27.01
27.80
28.55
28.76
28.05
26.36
23.91
21.12
18.44
16.16
14.32
12.75
11.13
9.18
6.76
3.88
0.66
-2.73
-6.16
-9.55
-12.84
-16.03
-19.18
-22.42
-25.97
-29.98
-34.39
-38.73
-42.22
-43.95
-43.15
-39.49
-33.19
-24.96
-15.72
-6.37
2.38
10.10
16.51
21.44
24.80
26.58
26.95
26.24
24.95
23.67
22.91
22.92
23.60
24.60
25.36
25.44
24.57
22.76
20.24
17.35
14.45
11.81
9.56
7.67
5.91
3.99
1.63
-1.24
-4.49
-7.88
-11.18
-14.34
-17.57
-21.11
-25.09
-29.46
-33.96
-38.10
-41.37
-43.18
-42.98
-40.41
-35.41
-28.33
-19.91
-11.03
-2.48
5.21
11.77
17.07
20.97
23.36
24.24
23.78
22.42
20.76
19.35
18.60
18.64
19.25
19.98
20.34
19.95
18.72
16.81
14.55
12.26
10.06
7.81
5.31
2.37
-1.02
-4.68
-8.31
-11.68
-14.66
-17.30
-19.80
-22.43
-25.51
-29.26
-33.67
-38.53
-43.36
-47.50
-50.18
-50.66
-48.36
-43.06
-35.09
-25.26
-14.75
-4.76
3.81
10.64
15.89
19.97
23.28
25.96
27.92
29.02
29.31
29.05
28.64
28.38
28.43
28.65
28.81
28.70
28.17
27.23
25.95
24.40
22.67
20.80
18.81
16.69
14.37
11.75
8.75
5.42
1.92
-1.53
-4.76
-7.74
-10.62
-13.67
-17.15
-21.23
-25.92
-31.07
-36.39
-41.45
-45.63
-48.14
-48.21
-45.31
-39.40
-31.10
-21.47
-11.67
-2.59
5.40
12.30
18.29
23.38
27.35
29.92
31.01
30.89
30.14
29.40
29.12
29.44
30.25
31.29
32.25
32.88
32.93
32.21
30.61
28.16
25.07
21.65
18.23
15.12
12.54
10.54
8.97
7.53
5.76
3.25
-0.19
-4.43
-9.00
-13.35
-17.02
-19.82
-21.91
-23.79
-26.06
-29.25
-33.51
-38.46
-43.13
-46.27
-46.71
-43.78
-37.58
-28.88
-18.80
-8.56
0.93
9.05
15.51
20.26
23.37
25.10
25.77
25.75
25.30
24.71
24.16
23.81
23.80
24.14
24.67
25.11
25.17
24.67
23.63
22.19
20.52
18.70
16.71
14.54
12.19
9.82
7.62
5.79
4.29
2.90
1.27
-0.91
-3.76
-7.13
-10.68
-14.00
-16.85
-19.26
-21.53
-24.15
-27.54
-31.80
-36.56
-41.01
-44.11
-44.87
-42.73
-37.70
-30.39
-21.74
-12.78
-4.31
3.16
9.40
14.35
18.02
20.41
21.60
21.76
21.20
20.31
19.50
19.06
19.13
19.67
20.48
21.29
21.83
21.86
21.26
20.04
18.32
16.35
14.36
12.52
10.81
9.14
7.35
5.33
3.06
0.63
-1.81
-4.19
-6.48
-8.76
-11.15
-13.77
-16.66
-19.84
-23.28
-26.95
-30.73
-34.34
-37.23
-38.70
-38.11
-35.11
-29.87
-23.03
-15.44
-7.86
-0.82
5.44
10.78
15.07
18.16
19.96
20.53
20.17
19.31
18.34
17.57
17.14
17.04
17.18
17.45
17.70
17.83
17.76
17.45
16.83
15.85
14.43
12.54
10.24
7.62
4.81
1.90
-1.09
-4.09
-6.96
-9.55
-11.75
-13.54
-15.14
-16.87
-19.06
-21.93
-25.51
-29.69
-34.17
-38.44
-41.84
-43.58
-42.94
-39.56
-33.60
-25.77
-17.12
-8.70
-1.26
4.93
9.89
13.84
16.94
19.22
20.69
21.37
21.47
21.27
21.03
20.90
20.94
21.06
21.16
21.20
21.13
20.90
20.43
19.62
18.36
16.62
14.40
11.84
9.05
6.20
3.39
0.66
-2.02
-4.73
-7.53
-10.44
-13.40
-16.33
-19.16
-21.99
-25.03
-28.58
-32.88
-37.94
-43.48
-48.86
-53.26
-55.77
-55.66
-52.57
-46.59
-38.29
-28.61
-18.60
-9.21
-1.01
5.81
11.44
16.21
20.38
23.95
26.76
28.63
29.54
29.68
29.45
29.26
29.40
29.93
30.73
31.53
32.10
32.22
31.79
30.79
29.24
27.17
24.62
21.70
18.62
15.68
13.13
11.08
9.36
7.54
5.13
1.77
-2.51
-7.41
-12.40
-17.03
-20.99
-24.24
-26.97
-29.54
-32.48
-36.28
-41.25
-47.22
-53.49
-58.90
-62.13
-62.15
-58.52
-51.54
-42.08
-31.32
-20.36
-10.04
-0.83
7.08
13.75
19.30
23.87
27.53
30.33
32.35
33.69
34.51
34.98
35.23
35.31
35.24
34.94
34.42
33.73
33.01
32.42
32.04
31.78
31.29
30.16
28.06
24.96
21.19
17.30
13.88
11.18
9.08
7.14
4.87
1.94
-1.70
-5.76
-9.87
-13.61
-16.72
-19.15
-21.09
-23.00
-25.50
-29.16
-34.35
-41.00
-48.45
-55.59
-61.07
-63.64
-62.51
-57.56
-49.34
-38.91
-27.53
-16.36
-6.21
2.53
9.84
15.91
20.97
25.17
28.56
31.16
33.02
34.27
35.07
35.59
35.93
36.09
36.01
35.72
35.27
34.79
34.38
33.98
33.40
32.35
30.60
28.11
25.05
21.74
18.51
15.60
13.05
10.74
8.50
6.09
3.32
0.09
-3.55
-7.34
-10.89
-13.85
-16.12
-17.97
-19.95
-22.72
-26.75
-32.18
-38.75
-45.87
-52.66
-58.02
-60.79
-60.05
-55.42
-47.32
-36.99
-26.01
-15.79
-7.12
-0.03
5.89
11.15
16.03
20.58
24.65
28.06
30.70
32.47
33.30
33.23
32.42
31.22
30.04
29.17
28.81
28.97
29.47
30.07
30.42
30.17
28.97
26.64
23.23
19.09
14.77
10.77
7.52
5.14
3.45
2.04
0.44
-1.75
-4.69
-8.26
-12.14
-15.93
-19.42
-22.63
-25.84
-29.42
-33.66
-38.61
-43.99
-49.17
-53.27
-55.32
-54.54
-50.54
-43.52
-34.26
-23.83
-13.42
-3.95
4.08
10.57
15.67
19.61
22.55
24.53
25.55
25.70
25.18
24.32
23.49
22.98
22.94
23.25
23.71
24.05
24.06
23.60
22.62
21.11
19.11
16.73
14.12
11.43
8.74
6.04
3.25
0.29
-2.82
-5.95
-8.94
-11.68
-14.24
-16.80
-19.62
-22.97
-26.98
-31.67
-36.89
-42.24
-47.04
-50.38
-51.30
-49.12
-43.65
-35.40
-25.40
-14.87
-4.93
3.68
10.70
16.16
20.26
23.19
25.13
26.23
26.65
26.62
26.42
26.25
26.24
26.42
26.67
26.79
26.63
26.10
25.18
23.91
22.37
20.61
18.66
16.51
14.16
11.55
8.58
5.19
1.38
-2.71
-6.79
-10.56
-13.84
-16.68
-19.33
-22.16
-25.55
-29.75
-34.86
-40.81
-47.27
-53.61
-58.90
-62.02
-61.95
-58.12
-50.68
-40.52
-28.97
-17.46
-7.05
1.73
8.90
14.77
19.72
23.92
27.39
30.03
31.75
32.65
32.93
32.90
32.83
32.86
32.99
33.11
33.12
32.89
32.29
31.26
29.72
27.66
25.15
22.37
19.47
16.57
13.65
10.62
7.38
3.84
0.07
-3.79
-7.59
-11.26
-14.79
-18.31
-21.97
-25.98
-30.51
-35.70
-41.50
-47.55
-53.11
-57.11
-58.42
-56.25
-50.46
-41.62
-30.88
-19.58
-8.89
0.52
8.43
15.00
20.44
24.93
28.50
31.15
32.86
33.73
33.96
33.83
33.64
33.65
33.94
34.44
34.93
35.13
34.77
33.70
31.91
29.54
26.81
23.93
21.10
18.39
15.79
13.20
10.46
7.43
4.02
0.27
-3.68
-7.63
-11.44
-15.04
-18.53
-22.11
-26.01
-30.43
-35.46
-40.97
-46.50
-51.23
-54.06
-53.89
-50.00
-42.44
-32.07
-20.33
-8.72
1.64
10.25
17.04
22.12
25.62
27.66
28.47
28.51
28.38
28.60
29.40
30.67
32.07
33.21
33.74
33.47
32.38
30.56
28.27
25.88
23.70
21.86
20.31
18.77
16.95
14.73
12.09
9.09
5.79
2.24
-1.48
-5.22
-8.72
-11.78
-14.38
-16.74
-19.26
-22.37
-26.41
-31.49
-37.35
-43.39
-48.72
-52.26
-53.10
-50.67
-44.97
-36.64
-26.73
-16.44
-6.83
1.49
8.31
13.73
17.99
21.24
23.52
24.86
25.32
25.09
24.48
23.87
23.51
23.55
23.96
24.56
25.13
25.42
25.25
24.48
23.12
21.26
19.08
16.76
14.41
12.05
9.61
6.97
4.08
0.96
-2.26
-5.43
-8.39
-11.12
-13.71
-16.35
-19.26
-22.62
-26.54
-30.98
-35.73
-40.33
-44.11
-46.19
-45.81
-42.55
-36.53
-28.40
-19.21
-10.02
-1.63
5.54
11.39
15.98
19.36
21.54
22.55
22.55
21.86
20.94
20.20
19.97
20.31
21.10
22.03
22.79
23.11
22.84
21.97
20.63
18.97
17.09
14.99
12.55
9.65
6.33
2.79
-0.62
-3.58
-5.92
-7.75
-9.36
-11.17
-13.53
-16.70
-20.78
-25.73
-31.28
-36.98
-42.12
-45.89
-47.49
-46.42
-42.50
-36.07
-27.87
-18.87
-10.07
-2.24
4.28
9.49
13.70
17.14
19.88
21.74
22.54
22.24
21.15
19.77
18.57
17.83
17.55
17.52
17.62
17.80
18.14
18.64
19.10
19.16
18.37
16.39
13.14
8.86
4.04
-0.73
-4.88
-8.05
-10.22
-11.68
-12.92
-14.52
-16.94
-20.46
-25.08
-30.57
-36.41
-41.83
-45.84
-47.49
-46.10
-41.49
-34.18
-25.16
-15.64
-6.66
1.16
7.65
12.95
17.23
20.57
22.94
24.30
24.72
24.49
23.99
23.58
23.44
23.52
23.56
23.29
22.56
21.46
20.23
19.08
18.11
17.15
15.87
13.92
11.11
7.53
3.47
-0.69
-4.65
-8.28
-11.62
-14.82
-18.05
-21.47
-25.26
-29.55
-34.42
-39.78
-45.22
-50.02
-53.21
-53.82
-51.19
-45.24
-36.53
-26.16
-15.37
-5.24
3.61
11.04
17.21
22.38
26.63
29.94
32.24
33.55
34.12
34.31
34.50
34.81
35.08
34.90
33.93
32.14
29.82
27.49
25.63
24.38
23.55
22.69
21.36
19.23
16.13
12.04
7.09
1.60
-4.02
-9.23
-13.63
-17.11
-19.89
-22.39
-25.11
-28.45
-32.78
-38.34
-45.16
-52.75
-60.04
-65.39
-67.18
-64.39
-57.06
-46.31
-33.88
-21.48
-10.34
-0.97
6.66
12.96
18.35
23.20
27.69
31.78
35.24
37.81
39.28
39.67
39.11
37.87
36.27
34.56
33.05
31.98
31.46
31.35
31.25
30.63
29.09
26.60
23.43
20.01
16.67
13.43
10.12
6.48
2.40
-1.99
-6.43
-10.73
-14.79
-18.67
-22.58
-26.77
-31.47
-36.80
-42.67
-48.67
-54.02
-57.70
-58.69
-56.31
-50.49
-41.83
-31.40
-20.41
-9.85
-0.30
8.09
15.42
21.81
27.27
31.70
34.94
36.92
37.72
37.58
36.82
35.77
34.70
33.86
33.40
33.38
33.70
34.09
34.11
33.32
31.44
28.47
24.73
20.73
16.97
13.70
10.89
8.28
5.54
2.43
-1.10
-4.94
-8.92
-12.87
-16.68
-20.30
-23.81
-27.38
-31.26
-35.71
-40.82
-46.33
-51.52
-55.33
-56.70
-54.90
-49.88
-42.25
-33.01
-23.19
-13.47
-4.19
4.54
12.64
19.94
26.10
30.81
33.81
35.10
34.90
33.71
32.15
30.88
30.33
30.61
31.52
32.63
33.46
33.70
33.09
31.52
28.96
25.56
21.64
17.76
14.45
11.99
10.30
8.87
7.08
4.51
1.04
-3.12
-7.61
-12.02
-16.10
-19.73
-22.94
-25.93
-29.08
-32.82
-37.42
-42.79
-48.40
-53.25
-56.18
-56.18
-52.71
-45.84
-36.26
-25.08
-13.57
-2.87
6.24
13.45
18.84
22.73
25.45
27.24
28.27
28.68
28.68
28.53
28.45
28.52
28.68
28.78
28.69
28.31
27.65
26.72
25.49
23.94
22.04
19.88
17.51
15.03
12.43
9.67
6.67
3.46
0.11
-3.25
-6.50
-9.54
-12.34
-14.95
-17.51
-20.28
-23.61
-27.82
-33.04
-39.01
-45.03
-50.05
-52.88
-52.60
-48.82
-41.86
-32.59
-22.23
-11.95
-2.62
5.35
11.85
17.00
20.92
23.65
25.24
25.85
25.75
25.31
24.92
24.81
25.02
25.41
25.76
25.80
25.42
24.59
23.39
21.96
20.42
18.83
17.16
15.35
13.24
10.70
7.62
4.01
0.05
-3.99
-7.73
-10.91
-13.47
-15.64
-17.84
-20.58
-24.18
-28.76
-34.09
-39.61
-44.56
-48.01
-49.05
-47.03
-41.81
-33.79
-23.91
-13.40
-3.44
5.11
11.82
16.65
19.80
21.58
22.36
22.49
22.30
22.04
21.85
21.74
21.63
21.44
21.09
20.54
19.82
18.91
17.87
16.67
15.31
13.69
11.71
9.19
6.06
2.35
-1.73
-5.80
-9.45
-12.43
-14.71
-16.57
-18.51
-21.06
-24.63
-29.26
-34.59
-39.81
-43.91
-45.87
-44.96
-40.90
-33.94
-24.85
-14.71
-4.73
4.04
10.89
15.58
18.27
19.38
19.41
18.78
17.83
16.81
16.01
15.64
15.73
16.14
16.50
16.47
15.82
14.58
12.91
11.01
8.99
6.88
4.69
2.41
0.08
-2.32
-4.89
-7.75
-11.01
-14.69
-18.76
-23.18
-27.97
-33.05
-38.14
-42.64
-45.67
-46.30
-43.92
-38.49
-30.54
-21.07
-11.22
-1.96
6.03
12.45
17.24
20.46
22.20
22.62
21.94
20.51
18.78
17.15
15.92
15.16
14.80
14.69
14.73
14.79
14.73
14.28
13.10
10.91
7.59
3.34
-1.39
-6.05
-10.23
-13.74
-16.74
-19.65
-22.95
-27.03
-31.98
-37.52
-42.94
-47.23
-49.32
-48.39
-44.14
-36.88
-27.47
-17.05
-6.77
2.52
10.38
16.71
21.60
25.17
27.51
28.71
28.93
28.47
27.70
27.01
26.60
26.48
26.43
26.20
25.53
24.34
22.70
20.75
18.62
16.33
13.81
10.88
7.44
3.53
-0.67
-4.91
-8.96
-12.79
-16.60
-20.70
-25.46
-31.03
-37.31
-43.81
-49.74
-54.09
-55.84
-54.27
-49.15
-40.94
-30.63
-19.57
-8.96
0.41
8.34
15.04
20.89
26.12
30.72
34.51
37.26
38.87
39.45
39.24
38.52
37.60
36.71
36.02
35.57
35.34
35.13
34.66
33.66
31.97
29.58
26.60
23.26
19.80
16.39
13.07
9.78
6.32
2.53
-1.61
-5.96
-10.25
-14.24
-17.87
-21.37
-25.16
-29.71
-35.29
-41.79
-48.64
-54.89
-59.41
-61.16
-59.49
-54.29
-46.09
-35.95
-25.03
-14.37
-4.64
3.98
11.59
18.35
24.33
29.41
33.41
36.21
37.89
38.76
39.22
39.61
40.06
40.44
40.50
40.04
39.04
37.70
36.28
34.97
33.74
32.39
30.68
28.48
25.83
22.90
19.93
17.07
14.31
11.46
8.33
4.74
0.72
-3.57
-7.74
-11.43
-14.45
-16.89
-19.11
-21.67
-25.08
-29.63
-35.37
-42.00
-48.95
-55.40
-60.26
-62.41
-60.96
-55.63
-46.95
-36.17
-24.89
-14.50
-5.77
1.31
7.27
12.75
18.20
23.63
28.69
32.91
35.94
37.66
38.21
37.89
37.05
35.99
34.93
34.05
33.49
33.29
33.41
33.59
33.47
32.67
30.97
28.37
25.11
21.55
18.06
14.88
12.18
10.00
8.29
6.88
5.44
3.59
1.06
-2.28
-6.24
-10.47
-14.60
-18.38
-21.74
-24.79
-27.76
-30.90
-34.49
-38.77
-43.76
-49.13
-54.20
-57.99
-59.47
-57.90
-53.02
-45.19
-35.24
-24.32
-13.58
-3.92
4.20
10.74
15.95
20.15
23.58
26.26
28.15
29.24
29.71
29.88
30.12
30.60
31.28
31.91
32.21
32.05
31.47
30.64
29.80
29.06
28.34
27.41
25.98
23.86
21.02
17.69
14.23
11.00
8.26
6.02
4.16
2.42
0.56
-1.62
-4.21
-7.18
-10.39
-13.68
-16.91
-20.01
-23.02
-26.10
-29.40
-33.01
-36.96
-41.21
-45.57
-49.71
-53.10
-54.96
-54.55
-51.30
-45.16
-36.71
-26.93
-16.91
-7.56
0.66
7.66
13.51
18.30
21.98
24.47
25.76
26.07
25.82
25.54
25.69
26.49
27.80
29.29
30.52
31.14
30.97
30.09
28.65
26.91
25.03
23.19
21.48
19.89
18.29
16.54
14.46
12.03
9.33
6.51
3.69
0.87
-2.01
-4.98
-7.97
-10.82
-13.37
-15.62
-17.75
-20.04
-22.75
-26.04
-29.92
-34.36
-39.29
-44.53
-49.64
-53.91
-56.42
-56.31
-53.13
-47.05
-38.81
-29.53
-20.27
-11.76
-4.24
2.42
8.48
14.10
19.14
23.33
26.33
28.00
28.47
28.08
27.28
26.48
25.97
25.90
26.33
27.16
28.18
29.08
29.54
29.33
28.43
26.97
25.15
23.09
20.78
18.17
15.29
12.34
9.65
7.52
5.97
4.71
3.27
1.15
-1.90
-5.76
-10.00
-13.99
-17.25
-19.62
-21.34
-22.98
-25.19
-28.48
-33.04
-38.74
-45.12
-51.54
-57.13
-60.88
-61.82
-59.26
-53.12
-44.00
-33.16
-22.03
-11.85
-3.29
3.54
8.90
13.18
16.78
19.93
22.77
25.31
27.48
29.07
29.91
29.94
29.26
28.15
26.97
26.04
25.61
25.79
26.51
27.46
28.19
28.17
26.95
24.36
20.55
16.01
11.40
7.29
4.14
2.01
0.63
-0.54
-2.05
-4.33
-7.47
-11.19
-15.08
-18.78
-22.19
-25.49
-28.97
-32.83
-37.05
-41.40
-45.45
-48.67
-50.45
-50.15
-47.31
-41.77
-33.91
-24.55
-14.71
-5.33
3.00
10.02
15.73
20.11
23.15
24.85
25.32
24.86
23.91
22.87
22.14
21.98
22.48
23.53
24.84
25.98
26.53
26.21
25.00
23.12
20.86
18.51
16.27
14.20
12.25
10.29
8.14
5.62
2.65
-0.70
-4.23
-7.72
-11.02
-14.14
-17.10
-19.94
-22.76
-25.71
-29.10
-33.21
-38.02
-43.01
-47.10
-48.98
-47.63
-42.79
-35.03
-25.55
-15.68
-6.44
1.60
8.29
13.65
17.75
20.63
22.37
23.14
23.21
22.97
22.82
23.00
23.51
24.17
24.63
24.63
24.07
23.04
21.75
20.35
18.92
17.48
16.09
14.80
13.54
12.17
10.34
7.70
4.09
-0.34
-5.18
-9.89
-14.05
-17.39
-19.91
-21.79
-23.44
-25.40
-28.29
-32.63
-38.53
-45.54
-52.59
-58.22
-60.97
-59.74
-54.18
-44.82
-32.99
-20.40
-8.75
0.80
7.83
12.63
15.89
18.28
20.21
21.88
23.31
24.59
25.83
27.14
28.42
29.42
29.85
29.47
28.33
26.70
24.95
23.43
22.29
21.45
20.62
19.40
17.44
14.57
10.80
6.34
1.53
-3.28
-7.78
-11.71
-14.93
-17.46
-19.56
-21.70
-24.46
-28.36
-33.59
-39.94
-46.71
-52.90
-57.31
-58.81
-56.64
-50.63
-41.35
-30.01
-18.18
-7.32
1.67
8.54
13.61
17.47
20.53
23.04
24.97
26.30
27.07
27.49
27.77
28.06
28.34
28.46
28.20
27.42
26.14
24.61
23.19
22.10
21.34
20.57
19.26
17.00
13.64
9.48
4.99
0.70
-3.11
-6.41
-9.42
-12.41
-15.62
-19.19
-23.27
-27.91
-33.10
-38.61
-43.93
-48.22
-50.60
-50.22
-46.66
-40.08
-31.25
-21.30
-11.45
-2.59
4.89
11.02
16.02
20.03
23.00
24.84
25.55
25.41
24.90
24.53
24.60
25.07
25.65
26.01
25.93
25.45
24.70
23.89
23.02
21.99
20.55
18.47
15.66
12.22
8.41
4.56
0.97
-2.22
-5.07
-7.72
-10.43
-13.48
-17.14
-21.58
-26.73
-32.19
-37.21
-40.71
-41.71
-39.55
-34.19
-26.23
-16.75
-6.93
2.26
10.18
16.54
21.31
24.54
26.32
26.77
26.14
24.84
23.46
22.60
22.68
23.70
25.29
26.79
27.52
27.09
25.51
23.12
20.44
17.89
15.68
13.81
12.03
10.02
7.54
4.47
0.89
-2.96
-6.80
-10.47
-13.99
-17.54
-21.38
-25.70
-30.57
-35.82
-41.07
-45.75
-49.08
-50.27
-48.68
-44.13
-36.98
-28.13
-18.59
-9.24
-0.66
6.93
13.39
18.55
22.20
24.17
24.57
23.82
22.54
21.26
20.32
19.75
19.45
19.30
19.20
19.05
18.73
18.00
16.64
14.52
11.66
8.15
4.12
-0.39
-5.33
-10.56
-15.80
-20.65
-24.77
-28.07
-30.81
-33.46
-36.50
-40.24
-44.60
-49.16
-53.19
-55.90
-56.42
-54.09
-48.53
-39.80
-28.47
-15.56
-2.29
10.27
21.40
30.82
38.54
44.58
48.85
51.15
51.45
50.06
47.69
45.24
43.41
42.42
42.07
41.85
41.30
40.16
38.47
36.39
34.07
31.58
28.87
25.84
22.45
18.70
14.78
10.94
7.39
4.22
1.31
-1.64
-5.04
-9.16
-14.09
-19.69
-25.61
-31.32
-36.17
-39.42
-40.40
-38.71
-34.41
-28.07
-20.62
-13.04
-6.07
-0.06
5.00
9.28
12.95
16.10
18.65
20.47
21.45
21.57
20.96
19.93
18.86
18.06
17.66
17.61
17.73
17.89
18.01
18.06
17.93
17.34
15.91
13.36
9.68
5.23
0.63
-3.48
-6.63
-8.74
-10.11
-11.37
-13.22
-16.24
-20.70
-26.42
-32.76
-38.74
-43.28
-45.39
-44.38
-40.12
-33.00
-23.96
-14.23
-5.03
2.79
8.91
13.54
17.09
19.93
22.11
23.51
23.97
23.60
22.78
22.10
22.04
22.77
24.02
25.24
25.86
25.51
24.13
22.01
19.56
17.16
15.03
13.16
11.38
9.46
7.27
4.74
1.89
-1.23
-4.51
-7.84
-11.08
-14.14
-17.01
-19.89
-23.15
-27.15
-32.08
-37.72
-43.42
-48.16
-50.89
-50.76
-47.47
-41.31
-33.13
-24.04
-15.08
-6.94
0.12
6.19
11.45
16.00
19.76
22.71
24.91
26.57
27.93
29.10
29.97
30.33
30.05
29.20
28.07
26.92
25.90
24.99
24.12
23.24
22.34
21.36
20.08
18.24
15.60
12.20
8.33
4.44
0.92
-2.03
-4.41
-6.45
-8.43
-10.63
-13.37
-16.89
-21.33
-26.68
-32.77
-39.24
-45.52
-50.78
-54.11
-54.68
-52.09
-46.53
-38.89
-30.33
-21.92
-14.28
-7.50
-1.31
4.58
10.34
15.87
20.93
25.19
28.40
30.40
31.19
31.00
30.21
29.23
28.36
27.78
27.58
27.79
28.39
29.21
29.90
29.90
28.72
26.12
22.34
17.94
13.64
10.00
7.30
5.46
4.17
2.97
1.36
-1.00
-4.20
-8.05
-12.15
-16.09
-19.64
-22.94
-26.35
-30.27
-34.92
-40.19
-45.56
-50.30
-53.53
-54.51
-52.78
-48.30
-41.54
-33.32
-24.56
-16.04
-8.23
-1.25
4.96
10.45
15.21
19.15
22.14
24.17
25.31
25.74
25.74
25.60
25.60
25.95
26.67
27.61
28.50
28.98
28.80
27.86
26.25
24.17
21.86
19.49
17.09
14.66
12.18
9.64
7.03
4.35
1.55
-1.45
-4.69
-8.07
-11.34
-14.27
-16.71
-18.87
-21.17
-24.23
-28.36
-33.39
-38.57
-42.76
-44.79
-43.92
-40.03
-33.55
-25.37
-16.49
-7.82
0.01
6.64
12.01
16.21
19.38
21.66
23.17
24.07
24.59
25.00
25.50
26.18
26.92
27.50
27.67
27.30
26.40
25.07
23.41
21.55
19.59
17.61
15.64
13.70
11.68
9.44
6.82
3.78
0.41
-3.07
-6.41
-9.42
-12.07
-14.48
-16.88
-19.49
-22.54
-26.20
-30.63
-35.83
-41.57
-47.29
-52.08
-54.87
-54.75
-51.30
-44.77
-36.02
-26.18
-16.31
-7.11
1.14
8.46
14.95
20.62
25.33
28.94
31.40
32.86
33.60
33.97
34.18
34.30
34.27
34.00
33.49
32.76
31.94
31.05
30.09
28.95
27.50
25.64
23.29
20.55
17.59
14.68
12.07
9.87
7.88
5.73
2.98
-0.59
-4.89
-9.50
-13.87
-17.59
-20.54
-22.95
-25.30
-28.14
-31.99
-37.14
-43.51
-50.48
-56.95
-61.52
-62.91
-60.41
-54.10
-44.87
-34.02
-22.94
-12.73
-4.00
3.14
8.93
13.77
18.05
22.00
25.62
28.74
31.22
32.99
34.12
34.68
34.71
34.14
32.98
31.35
29.64
28.31
27.69
27.78
28.21
28.45
27.98
26.45
23.80
20.23
16.18
12.16
8.64
5.89
3.86
2.23
0.51
-1.71
-4.57
-8.02
-11.88
-15.88
-19.88
-23.86
-27.83
-31.95
-36.35
-41.05
-45.78
-49.94
-52.68
-53.18
-50.98
-46.10
-39.04
-30.59
-21.53
-12.52
-4.01
3.74
10.53
16.30
21.05
24.73
27.32
28.81
29.32
29.14
28.76
28.61
28.92
29.63
30.43
31.01
31.17
30.85
30.03
28.71
26.87
24.57
22.01
19.43
17.07
15.03
13.18
11.26
9.00
6.19
2.78
-1.11
-5.24
-9.25
-12.78
-15.61
-17.78
-19.61
-21.62
-24.32
-28.02
-32.82
-38.39
-44.04
-48.76
-51.34
-50.74
-46.45
-38.77
-28.80
-18.07
-8.06
0.29
6.71
11.43
14.90
17.48
19.34
20.62
21.46
22.12
22.87
23.84
24.99
26.10
26.81
26.80
25.92
24.29
22.23
20.18
18.51
17.33
16.45
15.51
14.15
12.16
9.53
6.42
3.04
-0.40
-3.73
-6.78
-9.44
-11.67
-13.54
-15.25
-17.12
-19.54
-22.84
-27.23
-32.63
-38.52
-43.95
-47.74
-48.81
-46.55
-41.07
-33.15
-23.92
-14.55
-5.93
1.41
7.29
11.80
15.13
17.53
19.22
20.35
20.97
21.10
20.83
20.33
19.77
19.30
18.91
18.50
17.94
17.20
16.31
15.36
14.41
13.44
12.37
11.10
9.47
7.35
4.65
1.37
-2.34
-6.19
-9.83
-12.99
-15.62
-17.91
-20.15
-22.65
-25.71
-29.49
-34.06
-39.28
-44.80
-49.86
-53.54
-54.87
-53.22
-48.49
-41.17
-32.20
-22.71
-13.69
-5.79
0.72
6.00
10.38
14.19
17.60
20.57
22.87
24.31
24.86
24.73
24.24
23.72
23.31
23.00
22.64
22.13
21.45
20.64
19.72
18.65
17.32
15.57
13.30
10.54
7.40
4.07
0.72
-2.52
-5.64
-8.67
-11.66
-14.70
-17.87
-21.23
-24.89
-28.96
-33.55
-38.67
-44.15
-49.50
-53.96
-56.55
-56.39
-52.99
-46.51
-37.81
-28.16
-18.79
-10.46
-3.30
3.04
9.05
14.91
20.40
25.06
28.42
30.28
30.79
30.34
29.39
28.40
27.65
27.36
27.49
27.85
28.16
28.10
27.48
26.29
24.56
22.30
19.48
16.09
12.19
8.07
4.07
0.49
-2.59
-5.31
-7.87
-10.53
-13.58
-17.32
-22.00
-27.76
-34.43
-41.36
-47.58
-51.99
-53.63
-52.00
-47.16
-39.69
-30.65
-21.20
-12.36
-4.69
1.80
7.54
13.04
18.57
23.98
28.80
32.50
34.80
35.68
35.36
34.21
32.71
31.28
30.36
30.18
30.70
31.55
32.20
32.14
31.13
29.14
26.31
22.86
18.99
14.89
10.82
7.06
3.81
1.09
-1.17
-3.24
-5.39
-7.99
-11.36
-15.79
-21.37
-27.90
-34.89
-41.61
-47.19
-50.87
-52.01
-50.26
-45.54
-38.30
-29.36
-19.78
-10.58
-2.41
4.62
10.77
16.37
21.58
26.18
29.81
32.17
33.16
33.01
32.15
31.05
30.16
29.75
29.91
30.51
31.21
31.61
31.37
30.40
28.77
26.69
24.29
21.60
18.45
14.76
10.52
5.95
1.41
-2.78
-6.45
-9.64
-12.71
-16.12
-20.24
-25.22
-30.92
-36.88
-42.48
-47.03
-49.86
-50.38
-48.20
-43.21
-35.78
-26.71
-17.08
-7.89
0.21
7.06
12.87
17.85
22.07
25.34
27.42
28.27
28.05
27.11
25.89
24.76
23.93
23.49
23.42
23.54
23.67
23.62
23.31
22.73
21.74
20.10
17.51
13.80
9.13
4.12
-0.48
-4.05
-6.44
-8.02
-9.48
-11.52
-14.74
-19.41
-25.46
-32.47
-39.63
-45.75
-49.60
-50.15
-46.99
-40.47
-31.54
-21.46
-11.56
-2.83
4.20
9.50
13.40
16.40
18.90
21.03
22.70
23.76
24.13
23.98
23.50
22.83
22.00
21.00
19.88
18.87
18.19
17.95
17.96
17.80
16.99
15.17
12.18
8.06
3.04
-2.48
-7.93
-12.66
-16.18
-18.39
-19.74
-21.11
-23.44
-27.36
-32.91
-39.52
-46.14
-51.52
-54.50
-54.21
-50.31
-43.10
-33.43
-22.55
-11.77
-2.07
5.95
12.12
16.60
19.72
21.79
23.14
24.03
24.67
25.25
25.87
26.58
27.36
28.03
28.32
27.95
26.75
24.78
22.40
20.13
18.34
17.15
16.23
15.03
13.04
9.95
5.88
1.26
-3.34
-7.46
-10.90
-13.78
-16.46
-19.39
-23.01
-27.54
-32.93
-38.77
-44.35
-48.74
-50.95
-50.25
-46.33
-39.51
-30.59
-20.72
-10.96
-2.07
5.64
12.18
17.69
22.28
25.96
28.64
30.34
31.16
31.34
31.18
30.98
30.92
31.07
31.31
31.43
31.17
30.36
29.02
27.32
25.50
23.70
21.84
19.70
17.04
13.77
9.99
5.99
2.12
-1.39
-4.43
-7.07
-9.48
-11.86
-14.45
-17.48
-21.16
-25.66
-30.97
-36.83
-42.63
-47.44
-50.15
-49.83
-46.05
-39.10
-29.91
-19.82
-10.05
-1.42
5.81
11.82
16.92
21.36
25.17
28.23
30.45
31.84
32.56
32.79
32.77
32.62
32.36
31.94
31.32
30.44
29.30
27.95
26.47
24.87
23.17
21.28
19.07
16.48
13.49
10.21
6.82
3.48
0.32
-2.64
-5.39
-7.95
-10.34
-12.67
-15.15
-18.09
-21.80
-26.42
-31.74
-37.18
-41.88
-44.94
-45.65
-43.67
-39.10
-32.41
-24.34
-15.80
-7.64
-0.46
5.45
10.19
14.07
17.41
20.36
22.84
24.64
25.62
25.85
25.60
25.21
24.92
24.78
24.68
24.43
23.90
23.05
21.93
20.60
19.11
17.50
15.75
13.78
11.48
8.75
5.60
2.16
-1.26
-4.38
-7.01
-9.17
-11.05
-12.93
-15.08
-17.73
-21.07
-25.17
-29.92
-34.88
-39.27
-42.10
-42.43
-39.75
-34.17
-26.41
-17.57
-8.80
-0.98
5.41
10.34
14.02
16.76
18.79
20.19
20.94
21.03
20.63
20.03
19.63
19.68
20.21
21.00
21.68
21.99
21.78
21.08
19.99
18.63
17.03
15.22
13.16
10.86
8.32
5.57
2.68
-0.25
-3.10
-5.76
-8.24
-10.60
-13.00
-15.60
-18.57
-22.06
-26.16
-30.93
-36.25
-41.68
-46.51
-49.81
-50.70
-48.68
-43.82
-36.75
-28.52
-20.17
-12.47
-5.78
0.01
5.19
10.03
14.59
18.69
21.99
24.19
25.19
25.17
24.51
23.71
23.15
23.00
23.24
23.69
24.10
24.28
24.08
23.43
22.25
20.48
18.17
15.41
12.42
9.39
6.52
3.80
1.14
-1.60
-4.50
-7.48
-10.40
-13.08
-15.53
-17.94
-20.61
-23.91
-28.04
-32.92
-38.23
-43.34
-47.45
-49.78
-49.68
-46.88
-41.55
-34.29
-25.98
-17.56
-9.71
-2.79
3.16
8.31
12.83
16.76
20.07
22.63
24.35
25.30
25.67
25.71
25.66
25.66
25.72
25.79
25.84
25.83
25.74
25.45
24.68
23.20
20.88
17.87
14.56
11.46
8.83
6.67
4.69
2.49
-0.23
-3.54
-7.27
-11.11
-14.72
-17.84
-20.37
-22.43
-24.40
-26.84
-30.27
-34.99
-40.78
-46.86
-52.08
-55.18
-55.23
-51.86
-45.36
-36.60
-26.76
-16.98
-8.17
-0.75
5.20
9.85
13.44
16.23
18.39
20.08
21.48
22.72
23.90
25.02
25.99
26.69
26.98
26.79
26.13
25.05
23.70
22.25
20.87
19.70
18.74
17.83
16.70
15.07
12.77
9.79
6.29
2.56
-1.15
-4.64
-7.84
-10.78
-13.53
-16.24
-19.06
-22.23
-25.93
-30.21
-34.87
-39.35
-42.88
-44.61
-43.85
-40.34
-34.35
-26.59
-18.02
-9.60
-1.99
4.49
9.83
14.10
17.37
19.69
21.11
21.86
22.26
22.69
23.36
24.23
25.06
25.54
25.46
24.81
23.79
22.59
21.37
20.15
18.87
17.43
15.78
13.81
11.44
8.57
5.26
1.77
-1.52
-4.23
-6.18
-7.53
-8.84
-10.73
-13.73
-17.96
-23.11
-28.52
-33.48
-37.26
-39.26
-39.04
-36.37
-31.33
-24.38
-16.34
-8.17
-0.68
5.65
10.69
14.55
17.39
19.30
20.31
20.54
20.19
19.57
19.04
18.84
19.01
19.39
19.68
19.57
18.88
17.66
16.18
14.79
13.77
13.13
12.56
11.62
9.91
7.33
4.09
0.60
-2.74
-5.70
-8.30
-10.69
-13.06
-15.59
-18.41
-21.58
-25.05
-28.52
-31.46
-33.17
-33.00
-30.61
-26.04
-19.69
-12.21
-4.32
3.32
10.10
15.53
19.25
21.09
21.17
19.90
17.91
15.92
14.56
14.21
14.87
16.18
17.58
18.51
18.59
17.76
16.20
14.18
11.94
9.58
7.15
4.71
2.31
-0.03
-2.27
-4.49
-6.72
-8.97
-11.24
-13.56
-16.04
-18.92
-22.36
-26.30
-30.34
-33.79
-35.84
-35.83
-33.43
-28.78
-22.41
-15.09
-7.64
-0.76
5.12
9.81
13.30
15.68
17.06
17.57
17.34
16.61
15.63
14.73
14.18
14.12
14.53
15.19
15.79
16.07
15.82
14.94
13.50
11.57
9.22
6.52
3.56
0.48
-2.54
-5.27
-7.65
-9.76
-11.91
-14.46
-17.75
-21.96
-26.98
-32.39
-37.47
-41.32
-43.04
-42.03
-38.20
-32.04
-24.45
-16.48
-8.97
-2.35
3.30
8.10
12.13
15.37
17.74
19.15
19.68
19.51
18.95
18.24
17.59
17.05
16.56
16.06
15.45
14.69
13.84
13.01
12.24
11.40
10.27
8.53
5.95
2.56
-1.31
-5.24
-8.82
-11.87
-14.50
-17.05
-19.96
-23.58
-28.02
-32.99
-37.83
-41.54
-43.11
-41.81
-37.48
-30.65
-22.26
-13.34
-4.70
3.23
10.30
16.45
21.53
25.30
27.52
28.23
27.72
26.55
25.44
24.91
25.17
26.05
27.08
27.70
27.48
26.27
24.21
21.64
18.93
16.35
14.02
11.88
9.77
7.50
4.89
1.88
-1.46
-4.93
-8.36
-11.65
-14.89
-18.34
-22.22
-26.64
-31.55
-36.69
-41.62
-45.78
-48.46
-49.03
-47.02
-42.38
-35.53
-27.31
-18.69
-10.42
-2.90
3.91
10.19
16.07
21.45
26.03
29.48
31.61
32.53
32.60
32.34
32.27
32.65
33.46
34.36
34.94
34.85
33.90
32.12
29.71
26.89
23.80
20.58
17.30
14.01
10.74
7.50
4.27
1.03
-2.20
-5.41
-8.58
-11.74
-14.99
-18.48
-22.34
-26.65
-31.42
-36.48
-41.44
-45.70
-48.49
-49.07
-46.96
-42.08
-34.88
-26.16
-16.87
-7.83
0.37
7.50
13.50
18.41
22.29
25.15
27.01
27.95
28.23
28.25
28.44
29.06
30.08
31.19
31.94
31.97
31.21
29.80
28.00
25.98
23.81
21.54
19.27
17.13
15.17
13.24
10.99
8.05
4.31
-0.02
-4.44
-8.43
-11.73
-14.34
-16.53
-18.68
-21.21
-24.46
-28.67
-33.81
-39.44
-44.64
-48.26
-49.23
-46.98
-41.57
-33.70
-24.46
-14.95
-6.03
1.75
8.20
13.33
17.28
20.21
22.26
23.54
24.31
24.85
25.47
26.29
27.25
28.04
28.29
27.79
26.56
24.82
22.85
20.83
18.95
17.32
15.99
14.90
13.82
12.33
10.04
6.79
2.80
-1.45
-5.40
-8.75
-11.52
-14.02
-16.63
-19.67
-23.32
-27.62
-32.36
-37.11
-41.20
-43.75
-43.97
-41.40
-36.05
-28.40
-19.31
-9.76
-0.63
7.43
13.98
18.84
22.07
23.85
24.44
24.18
23.41
22.51
21.79
21.55
21.88
22.66
23.57
24.19
24.10
23.12
21.29
18.85
16.14
13.42
10.79
8.18
5.42
2.39
-0.89
-4.28
-7.58
-10.63
-13.39
-16.04
-18.79
-21.91
-25.57
-29.89
-34.80
-40.12
-45.45
-50.11
-53.21
-53.92
-51.67
-46.44
-38.80
-29.74
-20.35
-11.47
-3.54
3.39
9.45
14.73
19.15
22.56
24.82
26.00
26.42
26.52
26.70
27.11
27.68
28.18
28.33
27.96
27.09
25.81
24.29
22.64
20.93
19.19
17.32
15.18
12.58
9.35
5.47
1.11
-3.41
-7.72
-11.55
-14.88
-17.83
-20.68
-23.81
-27.56
-32.18
-37.61
-43.37
-48.58
-52.06
-52.75
-50.04
-44.03
-35.43
-25.37
-14.97
-5.12
3.66
11.11
17.15
21.78
25.01
26.95
27.81
27.90
27.62
27.33
27.27
27.51
27.93
28.30
28.37
27.97
27.02
25.59
23.78
21.74
19.65
17.60
15.58
13.44
10.92
7.83
4.14
0.08
-3.93
-7.52
-10.52
-13.14
-15.84
-19.23
-23.66
-29.09
-35.04
-40.61
-44.76
-46.57
-45.47
-41.40
-34.80
-26.54
-17.57
-8.73
-0.60
6.55
12.59
17.47
21.10
23.42
24.52
24.69
24.39
24.11
24.18
24.64
25.22
25.53
25.24
24.25
22.72
20.99
19.37
17.95
16.59
14.98
12.76
9.77
6.07
1.94
-2.16
-5.91
-9.14
-11.99
-14.80
-18.01
-21.98
-26.80
-32.22
-37.58
-42.02
-44.61
-44.62
-41.70
-36.08
-28.38
-19.51
-10.41
-1.80
5.90
12.53
18.06
22.43
25.52
27.24
27.60
26.87
25.47
23.91
22.60
21.74
21.33
21.28
21.44
21.68
21.83
21.60
20.67
18.72
15.60
11.42
6.58
1.59
-3.12
-7.22
-10.68
-13.71
-16.68
-20.03
-24.19
-29.40
-35.57
-42.19
-48.32
-52.80
-54.47
-52.59
-47.08
-38.55
-28.13
-17.16
-6.83
2.15
9.49
15.25
19.64
22.88
25.05
26.26
26.66
26.52
26.17
25.93
25.98
26.29
26.66
26.82
26.54
25.77
24.60
23.23
21.74
20.08
17.95
15.03
11.09
6.19
0.75
-4.62
-9.43
-13.47
-16.96
-20.45
-24.60
-29.87
-36.29
-43.43
-50.44
-56.20
-59.60
-59.81
-56.45
-49.76
-40.53
-29.85
-18.87
-8.52
0.65
8.50
15.15
20.77
25.45
29.16
31.80
33.35
34.01
34.10
34.03
34.05
34.16
34.10
33.55
32.35
30.59
28.58
26.63
24.79
22.82
20.25
16.73
12.18
6.91
1.53
-3.34
-7.32
-10.43
-13.04
-15.79
-19.35
-24.13
-30.15
-36.97
-43.77
-49.48
-53.08
-53.81
-51.36
-45.91
-38.09
-28.82
-19.05
-9.50
-0.57
7.68
15.31
22.25
28.22
32.82
35.70
36.87
36.68
35.71
34.55
33.55
32.86
32.42
32.10
31.75
31.21
30.30
28.84
26.73
24.00
20.75
17.06
12.99
8.65
4.21
-0.02
-3.72
-6.77
-9.37
-12.04
-15.42
-20.02
-26.04
-33.23
-40.99
-48.36
-54.21
-57.39
-57.06
-52.91
-45.35
-35.42
-24.47
-13.74
-4.01
4.49
11.86
18.28
23.81
28.28
31.51
33.41
34.10
33.94
33.37
32.77
32.37
32.15
31.97
31.67
31.14
30.41
29.55
28.62
27.54
26.10
23.96
20.84
16.65
11.60
6.13
0.81
-3.88
-7.73
-10.83
-13.53
-16.34
-19.78
-24.23
-29.83
-36.39
-43.31
-49.61
-54.13
-55.80
-53.98
-48.67
-40.50
-30.57
-20.06
-9.93
-0.78
7.15
13.82
19.22
23.28
25.95
27.27
27.45
26.93
26.27
25.95
26.21
26.96
27.88
28.53
28.58
27.96
26.83
25.43
23.96
22.44
20.69
18.44
15.51
11.84
7.62
3.20
-1.01
-4.70
-7.75
-10.31
-12.81
-15.77
-19.71
-24.83
-30.90
-37.25
-42.88
-46.68
-47.72
-45.46
-39.91
-31.62
-21.61
-11.08
-1.17
7.30
13.97
18.88
22.24
24.25
25.07
24.91
24.16
23.34
23.00
23.43
24.48
25.63
26.26
25.95
24.64
22.67
20.46
18.38
16.51
14.71
12.68
10.17
7.03
3.29
-0.83
-4.99
-8.85
-12.19
-15.01
-17.54
-20.14
-23.25
-27.21
-32.12
-37.69
-43.24
-47.73
-50.02
-49.18
-44.86
-37.41
-27.82
-17.37
-7.23
1.81
9.46
15.71
20.62
24.17
26.28
26.92
26.34
25.07
23.83
23.29
23.76
25.04
26.55
27.56
27.52
26.31
24.18
21.62
19.06
16.71
14.53
12.28
9.72
6.70
3.27
-0.43
-4.18
-7.78
-11.11
-14.15
-17.01
-19.97
-23.35
-27.50
-32.60
-38.48
-44.59
-50.00
-53.60
-54.41
-51.89
-46.15
-37.92
-28.30
-18.42
-9.12
-0.83
6.35
12.50
17.69
21.89
24.98
26.93
27.80
27.88
27.56
27.22
27.16
27.48
28.08
28.68
28.96
28.67
27.75
26.34
24.67
22.91
21.04
18.80
15.81
11.87
7.10
1.95
-2.93
-7.03
-10.22
-12.76
-15.18
-18.05
-21.81
-26.68
-32.62
-39.28
-45.89
-51.34
-54.35
-53.86
-49.45
-41.53
-31.23
-20.02
-9.24
0.20
7.84
13.66
17.80
20.53
22.17
23.06
23.52
23.77
23.91
24.02
24.19
24.48
24.90
25.32
25.45
25.04
24.00
22.49
20.87
19.39
18.04
16.52
14.39
11.35
7.42
2.98
-1.48
-5.53
-9.03
-12.12
-15.12
-18.44
-22.42
-27.22
-32.75
-38.57
-43.90
-47.73
-49.15
-47.57
-42.97
-35.87
-27.17
-17.85
-8.78
-0.53
6.55
12.32
16.75
19.82
21.57
22.15
21.82
21.00
20.17
19.74
19.89
20.55
21.40
22.05
22.20
21.73
20.79
19.55
18.14
16.57
14.69
12.31
9.39
6.04
2.53
-0.79
-3.69
-6.14
-8.33
-10.68
-13.61
-17.44
-22.24
-27.80
-33.56
-38.77
-42.60
-44.22
-43.08
-38.97
-32.19
-23.49
-13.94
-4.70
3.36
9.78
14.50
17.75
19.82
20.91
21.10
20.53
19.45
18.20
17.15
16.55
16.42
16.59
16.88
17.15
17.28
17.11
16.43
15.01
12.74
9.66
6.09
2.40
-1.13
-4.33
-7.18
-9.75
-12.15
-14.60
-17.47
-21.15
-25.91
-31.62
-37.59
-42.70
-45.67
-45.56
-42.04
-35.58
-27.16
-18.08
-9.53
-2.27
3.45
7.77
11.05
13.59
15.46
16.63
17.00
16.65
15.80
14.74
13.77
13.06
12.69
12.67
13.02
13.67
14.44
15.02
15.02
14.14
12.21
9.22
5.37
0.94
-3.64
-7.96
-11.66
-14.64
-17.09
-19.50
-22.44
-26.34
-31.22
-36.66
-41.81
-45.55
-46.86
-45.01
-39.87
-31.97
-22.35
-12.28
-2.88
5.15
11.59
16.52
20.19
22.80
24.44
25.28
25.49
25.34
25.11
25.00
25.03
25.08
25.00
24.58
23.71
22.38
20.66
18.62
16.31
13.72
10.80
7.47
3.75
-0.22
-4.23
-8.05
-11.55
-14.82
-18.12
-21.81
-26.20
-31.37
-37.02
-42.48
-46.79
-48.99
-48.36
-44.66
-38.26
-29.99
-20.92
-11.97
-3.75
3.56
10.11
16.08
21.54
26.32
30.14
32.72
34.01
34.27
33.94
33.50
33.29
33.41
33.64
33.66
33.12
31.87
29.94
27.46
24.61
21.54
18.33
15.05
11.78
8.56
5.41
2.32
-0.73
-3.74
-6.68
-9.60
-12.67
-16.18
-20.43
-25.62
-31.71
-38.38
-45.06
-50.95
-55.10
-56.61
-54.82
-49.65
-41.73
-32.21
-22.36
-13.13
-4.92
2.42
9.20
15.63
21.59
26.79
30.87
33.62
35.03
35.32
34.86
34.15
33.63
33.58
33.98
34.62
35.14
35.31
35.05
34.29
32.93
30.84
27.90
24.22
20.25
16.57
13.66
11.61
10.03
8.31
5.92
2.70
-1.16
-5.18
-8.96
-12.33
-15.38
-18.41
-21.81
-25.90
-30.88
-36.70
-43.03
-49.25
-54.44
-57.54
-57.60
-54.00
-46.80
-36.81
-25.32
-13.81
-3.50
5.02
11.78
17.18
21.74
25.73
29.12
31.73
33.41
34.23
34.46
34.44
34.41
34.42
34.37
34.08
33.43
32.41
31.08
29.49
27.66
25.49
22.95
20.05
16.93
13.79
10.78
7.88
4.92
1.69
-1.86
-5.60
-9.23
-12.46
-15.17
-17.50
-19.78
-22.35
-25.61
-29.86
-35.31
-41.83
-48.75
-54.86
-58.59
-58.54
-54.16
-45.92
-35.21
-23.80
-13.18
-4.18
3.07
8.86
13.64
17.69
21.20
24.24
26.83
29.01
30.83
32.30
33.47
34.18
34.22
33.44
31.85
29.74
27.68
26.18
25.49
25.42
25.42
24.90
23.47
21.03
17.79
14.08
10.23
6.46
2.96
-0.23
-3.13
-5.79
-8.30
-10.76
-13.20
-15.81
-18.85
-22.62
-27.33
-32.97
-39.17
-45.32
-50.64
-54.38
-55.87
-54.65
-50.55
-43.93
-35.53
-26.41
-17.59
-9.76
-3.03
2.84
8.26
13.41
18.10
21.93
24.52
25.74
25.91
25.54
25.18
25.16
25.50
25.96
26.26
26.19
25.72
24.89
23.78
22.30
20.26
17.54
14.27
10.79
7.58
4.98
3.02
1.41
-0.23
-2.16
-4.42
-6.95
-9.69
-12.67
-15.99
-19.75
-23.90
-28.36
-33.03
-37.84
-42.61
-46.93
-49.99
-50.86
-48.75
-43.45
-35.46
-25.89
-15.98
-6.74
1.30
8.02
13.49
17.79
20.90
22.75
23.37
23.02
22.16
21.32
20.96
21.27
22.13
23.15
23.90
24.00
23.30
21.90
20.03
17.98
15.90
13.80
11.56
9.03
6.08
2.79
-0.71
-4.19
-7.53
-10.72
-13.94
-17.39
-21.25
-25.63
-30.51
-35.77
-41.22
-46.48
-50.93
-53.72
-54.02
-51.26
-45.44
-37.17
-27.50
-17.52
-8.02
0.60
8.31
15.16
21.13
26.05
29.71
31.97
32.86
32.68
31.89
31.03
30.56
30.68
31.29
32.03
32.45
32.16
31.03
29.11
26.62
23.75
20.67
17.40
13.95
10.30
6.50
2.65
-1.10
-4.61
-7.84
-10.92
-14.16
-17.92
-22.52
-28.08
-34.48
-41.32
-47.99
-53.70
-57.58
-58.83
-56.91
-51.70
-43.66
-33.73
-23.09
-12.81
-3.59
4.37
11.27
17.41
23.01
28.00
32.13
35.05
36.58
36.84
36.24
35.32
34.55
34.15
34.05
34.03
33.78
33.14
32.03
30.51
28.67
26.49
23.92
20.85
17.22
13.10
8.68
4.23
-0.04
-3.99
-7.67
-11.21
-14.87
-18.95
-23.75
-29.49
-36.16
-43.44
-50.58
-56.56
-60.23
-60.69
-57.50
-50.84
-41.47
-30.46
-18.96
-7.95
1.95
10.47
17.54
23.27
27.73
30.99
33.09
34.19
34.54
34.46
34.26
34.10
33.99
33.79
33.32
32.47
31.27
29.84
28.31
26.69
24.85
22.54
19.52
15.64
10.98
5.81
0.56
-4.32
-8.46
-11.76
-14.40
-16.88
-19.82
-23.74
-28.97
-35.39
-42.46
-49.30
-54.86
-58.07
-58.08
-54.51
-47.49
-37.75
-26.46
-14.93
-4.28
4.86
12.33
18.28
23.00
26.66
29.31
30.95
31.71
31.82
31.59
31.32
31.14
30.99
30.69
30.07
29.01
27.53
25.72
23.71
21.58
19.31
16.77
13.83
10.41
6.59
2.63
-1.19
-4.61
-7.57
-10.20
-12.85
-15.92
-19.77
-24.65
-30.55
-37.16
-43.81
-49.52
-53.19
-53.81
-50.82
-44.31
-35.02
-24.13
-12.96
-2.61
6.27
13.45
18.98
23.00
25.61
26.91
26.99
26.12
24.69
23.15
21.92
21.19
20.94
20.98
21.06
21.02
20.84
20.48
19.90
18.85
17.03
14.19
10.29
5.62
0.67
-4.00
-8.06
-11.42
-14.29
-17.03
-20.03
-23.59
-27.76
-32.36
-36.90
-40.60
-42.53
-41.87
-38.15
-31.43
-22.37
-12.06
-1.75
7.44
14.74
19.77
22.56
23.40
22.74
21.11
19.07
17.14
15.75
15.16
15.38
16.23
17.33
18.25
18.57
17.99
16.43
13.97
10.82
7.26
3.51
-0.23
-3.86
-7.27
-10.40
-13.27
-16.05
-19.07
-22.79
-27.59
-33.52
-40.14
-46.50
-51.31
-53.35
-51.76
-46.39
-37.83
-27.22
-15.93
-5.20
4.17
11.84
17.86
22.41
25.68
27.79
28.82
28.91
28.29
27.25
26.05
24.84
23.67
22.52
21.38
20.28
19.24
18.19
16.97
15.38
13.19
10.26
6.61
2.41
-2.08
-6.50
-10.59
-14.25
-17.61
-21.02
-24.98
-29.90
-35.85
-42.42
-48.71
-53.48
-55.56
-54.17
-49.17
-41.10
-31.01
-20.04
-9.19
0.96
10.11
18.11
24.82
30.00
33.45
35.22
35.67
35.34
34.82
34.39
34.04
33.49
32.46
30.89
28.97
26.99
25.16
23.46
21.65
19.39
16.48
12.86
8.72
4.32
-0.08
-4.34
-8.48
-12.63
-17.01
-21.87
-27.35
-33.40
-39.71
-45.61
-50.15
-52.33
-51.36
-46.95
-39.44
-29.75
-19.10
-8.63
0.93
9.33
16.66
23.07
28.52
32.77
35.48
36.51
36.02
34.52
32.68
31.07
30.02
29.59
29.59
29.69
29.56
28.87
27.32
24.68
20.90
16.13
10.73
5.21
0.10
-4.30
-7.93
-11.02
-14.06
-17.60
-22.16
-28.01
-35.06
-42.69
-49.81
-55.04
-57.06
-55.04
-48.96
-39.59
-28.29
-16.51
-5.43
4.21
12.11
18.29
22.89
26.09
28.11
29.19
29.59
29.55
29.27
28.92
28.61
28.35
28.09
27.66
26.87
25.54
23.62
21.13
18.15
14.80
11.20
7.45
3.68
-0.03
-3.66
-7.29
-11.13
-15.43
-20.45
-26.23
-32.55
-38.81
-44.07
-47.26
-47.47
-44.24
-37.80
-28.96
-18.93
-8.92
0.17
7.91
14.24
19.26
23.10
25.78
27.29
27.67
27.08
25.84
24.37
23.09
22.31
22.08
22.24
22.41
22.20
21.27
19.52
17.01
13.92
10.45
6.78
3.05
-0.61
-4.06
-7.29
-10.45
-13.86
-17.91
-22.84
-28.58
-34.58
-39.94
-43.57
-44.52
-42.18
-36.49
-28.00
-17.72
-6.96
3.08
11.54
18.02
22.56
25.38
26.77
26.97
26.27
25.03
23.67
22.54
21.81
21.41
21.09
20.62
19.86
18.80
17.48
15.86
13.88
11.48
8.63
5.47
2.23
-0.91
-3.84
-6.63
-9.49
-12.68
-16.45
-20.95
-26.16
-31.92
-37.83
-43.27
-47.38
-49.20
-47.92
-43.15
-35.22
-25.10
-14.15
-3.72
5.30
12.58
18.26
22.59
25.72
27.66
28.36
27.90
26.65
25.13
23.90
23.26
23.26
23.65
24.04
24.10
23.63
22.55
20.87
18.56
15.56
11.87
7.60
3.04
-1.40
-5.36
-8.69
-11.49
-14.08
-16.90
-20.29
-24.48
-29.40
-34.62
-39.37
-42.60
-43.20
-40.44
-34.26
-25.36
-15.05
-4.77
4.33
11.66
17.16
21.04
23.56
24.85
25.00
24.14
22.58
20.84
19.44
18.79
18.99
19.79
20.66
21.00
20.36
18.56
15.77
12.41
8.94
5.60
2.46
-0.64
-3.85
-7.23
-10.71
-14.22
-17.82
-21.73
-26.10
-30.91
-35.71
-39.66
-41.73
-41.08
-37.37
-30.88
-22.46
-13.22
-4.24
3.79
10.59
16.22
20.84
24.45
26.83
27.70
26.94
24.81
21.98
19.29
17.42
16.63
16.78
17.44
18.08
18.24
17.57
15.84
12.93
8.94
4.21
-0.75
-5.42
-9.41
-12.57
-15.09
-17.38
-20.00
-23.45
-28.05
-33.69
-39.72
-45.01
-48.21
-48.19
-44.43
-37.14
-27.27
-16.12
-5.06
4.85
12.95
19.03
23.19
25.72
26.99
27.35
27.06
26.40
25.59
24.85
24.39
24.26
24.35
24.39
24.01
22.88
20.86
17.99
14.48
10.64
6.71
2.88
-0.81
-4.37
-7.88
-11.43
-15.15
-19.24
-23.93
-29.32
-35.28
-41.28
-46.40
-49.54
-49.73
-46.46
-39.90
-30.83
-20.46
-9.96
-0.27
8.10
15.01
20.50
24.73
27.80
29.87
31.11
31.72
31.87
31.66
31.05
30.02
28.58
26.88
25.12
23.54
22.20
21.01
19.70
17.95
15.53
12.32
8.38
3.90
-0.82
-5.45
-9.66
-13.23
-16.25
-19.16
-22.61
-27.24
-33.30
-40.35
-47.25
-52.46
-54.54
-52.57
-46.47
-36.99
-25.44
-13.30
-1.80
8.24
16.54
23.23
28.53
32.60
35.45
36.99
37.29
36.67
35.67
34.84
34.54
34.74
35.07
35.11
34.47
33.02
30.86
28.20
25.34
22.54
19.90
17.36
14.65
11.45
7.54
2.97
-1.92
-6.66
-10.86
-14.44
-17.54
-20.52
-23.72
-27.42
-31.82
-37.05
-43.04
-49.46
-55.54
-60.14
-62.02
-60.28
-54.68
-45.82
-34.92
-23.39
-12.39
-2.55
6.04
13.60
20.34
26.28
31.23
34.88
37.12
38.02
37.89
37.12
36.12
35.11
34.21
33.41
32.63
31.80
30.88
29.81
28.54
26.96
24.97
22.52
19.58
16.24
12.73
9.23
5.91
2.81
-0.19
-3.27
-6.59
-10.20
-14.03
-17.91
-21.71
-25.39
-29.07
-33.00
-37.46
-42.57
-48.09
-53.37
-57.39
-59.02
-57.40
-52.27
-44.06
-33.84
-22.89
-12.39
-3.08
4.78
11.28
16.62
20.97
24.35
26.79
28.30
29.04
29.23
29.15
28.99
28.88
28.85
28.82
28.75
28.64
28.49
28.28
27.87
27.01
25.44
23.03
19.85
16.24
12.60
9.25
6.33
3.74
1.29
-1.22
-3.88
-6.71
-9.71
-12.85
-16.15
-19.67
-23.49
-27.78
-32.72
-38.33
-44.26
-49.78
-53.85
-55.35
-53.57
-48.41
-40.48
-30.86
-20.81
-11.37
-3.06
4.10
10.42
16.23
21.61
26.40
30.20
32.71
33.92
34.10
33.72
33.27
33.05
33.11
33.33
33.52
33.50
33.14
32.39
31.28
29.85
28.11
26.07
23.66
20.83
17.67
14.43
11.39
8.83
6.80
5.04
3.13
0.64
-2.58
-6.41
-10.48
-14.44
-18.02
-21.19
-24.11
-26.99
-30.10
-33.67
-37.84
-42.63
-47.75
-52.52
-55.90
-56.77
-54.31
-48.36
-39.51
-28.96
-18.12
-8.14
0.30
7.05
12.29
16.30
19.29
21.35
22.55
23.00
22.91
22.54
22.11
21.78
21.63
21.69
21.93
22.32
22.77
23.09
23.01
22.28
20.73
18.39
15.48
12.35
9.33
6.60
4.17
1.91
-0.38
-2.90
-5.72
-8.82
-12.10
-15.42
-18.67
-21.78
-24.82
-27.98
-31.52
-35.65
-40.32
-45.13
-49.19
-51.43
-50.86
-47.02
-40.10
-31.02
-21.02
-11.30
-2.75
4.22
9.59
13.59
16.45
18.37
19.47
19.82
19.50
18.69
17.67
16.77
16.26
16.23
16.53
16.82
16.83
16.49
15.88
15.18
14.46
13.52
12.00
9.58
6.21
2.18
-1.96
-5.65
-8.48
-10.43
-11.77
-13.03
-14.77
-17.45
-21.34
-26.47
-32.56
-39.04
-45.09
-49.69
-51.80
-50.64
-45.91
-37.99
-27.90
-17.01
-6.69
2.08
8.90
13.85
17.24
19.39
20.50
20.72
20.23
19.35
18.45
17.84
17.62
17.71
17.85
17.81
17.52
17.05
16.51
15.95
15.24
14.08
12.18
9.35
5.70
1.54
-2.71
-6.67
-10.15
-13.20
-16.05
-19.03
-22.49
-26.63
-31.46
-36.67
-41.61
-45.33
-46.78
-45.12
-40.09
-32.10
-22.17
-11.62
-1.65
6.99
14.05
19.62
23.89
26.90
28.56
28.78
27.72
25.82
23.70
21.96
20.95
20.65
20.80
21.05
21.10
20.75
19.89
18.45
16.32
13.40
9.70
5.37
0.70
-3.91
-8.05
-11.47
-14.19
-16.50
-18.95
-22.20
-26.75
-32.68
-39.43
-45.89
-50.62
-52.35
-50.41
-44.90
-36.64
-26.80
-16.61
-7.00
1.50
8.67
14.59
19.45
23.45
26.67
29.06
30.50
30.90
30.39
29.27
27.94
26.67
25.54
24.59
23.81
23.26
22.93
22.63
21.91
20.20
17.12
12.70
7.43
2.02
-2.91
-7.05
-10.47
-13.50
-16.59
-20.22
-24.80
-30.50
-37.00
-43.45
-48.45
-50.53
-48.65
-42.58
-33.07
-21.55
-9.69
1.14
10.11
17.03
22.06
25.57
27.85
29.14
29.61
29.45
28.85
27.98
27.04
26.18
25.44
24.89
24.48
24.11
23.57
22.67
21.15
18.90
15.89
12.27
8.24
4.00
-0.24
-4.35
-8.26
-12.00
-15.70
-19.60
-24.02
-29.12
-34.68
-40.07
-44.24
-45.98
-44.34
-39.02
-30.46
-19.78
-8.41
2.32
11.52
18.80
24.21
27.97
30.36
31.51
31.54
30.60
29.00
27.11
25.37
24.12
23.46
23.26
23.24
23.02
22.33
20.99
18.96
16.33
13.18
9.64
5.86
2.01
-1.75
-5.27
-8.51
-11.65
-15.01
-19.00
-23.90
-29.67
-35.81
-41.41
-45.36
-46.63
-44.56
-39.03
-30.55
-20.14
-9.11
1.22
9.80
16.06
19.93
21.78
22.18
21.72
20.88
20.01
19.39
19.19
19.43
19.96
20.45
20.53
19.90
18.48
16.34
13.65
10.61
7.41
4.24
1.22
-1.53
-4.00
-6.32
-8.69
-11.39
-14.68
-18.78
-23.75
-29.44
-35.32
-40.53
-43.97
-44.60
-41.81
-35.61
-26.77
-16.53
-6.28
2.84
10.20
15.69
19.64
22.50
24.59
25.95
26.47
26.05
24.84
23.27
21.90
21.10
20.89
20.90
20.63
19.66
17.86
15.38
12.51
9.46
6.31
3.03
-0.43
-4.01
-7.58
-11.04
-14.38
-17.83
-21.74
-26.38
-31.71
-37.16
-41.68
-44.01
-43.12
-38.64
-31.03
-21.45
-11.31
-1.90
6.01
12.14
16.57
19.52
21.19
21.78
21.50
20.61
19.47
18.39
17.62
17.23
17.13
17.11
16.86
16.09
14.64
12.44
9.66
6.56
3.43
0.46
-2.33
-5.09
-7.98
-11.20
-14.82
-18.88
-23.37
-28.20
-33.05
-37.32
-40.15
-40.64
-38.11
-32.51
-24.41
-14.90
-5.20
3.68
11.22
17.24
21.81
24.99
26.77
27.12
26.05
23.77
20.75
17.66
15.13
13.70
13.52
14.28
15.45
16.39
16.56
15.73
13.87
11.10
7.65
3.82
-0.05
-3.61
-6.62
-9.06
-11.24
-13.68
-16.92
-21.20
-26.40
-31.86
-36.55
-39.22
-38.82
-34.76
-27.23
-17.23
-6.27
4.09
12.75
19.20
23.39
25.53
25.85
24.61
22.29
19.60
17.36
16.27
16.54
17.84
19.44
20.64
20.94
20.27
18.79
16.71
14.19
11.26
7.94
4.37
0.71
-2.88
-6.32
-9.66
-13.17
-17.14
-21.74
-26.83
-31.91
-36.09
-38.36
-37.86
-34.17
-27.50
-18.69
-8.96
0.46
8.67
15.22
20.09
23.53
25.76
26.91
27.05
26.29
24.89
23.22
21.75
20.74
20.23
19.95
19.55
18.67
17.19
15.13
12.66
9.86
6.81
3.50
-0.06
-3.80
-7.61
-11.42
-15.32
-19.56
-24.37
-29.82
-35.64
-41.13
-45.28
-47.06
-45.74
-41.12
-33.62
-24.18
-13.89
-3.77
5.47
13.43
19.98
25.06
28.64
30.76
31.60
31.43
30.62
29.58
28.60
27.78
27.10
26.44
25.69
24.81
23.89
23.03
22.18
21.07
19.27
16.40
12.34
7.43
2.32
-2.29
-5.94
-8.62
-10.75
-12.96
-15.87
-19.97
-25.51
-32.42
-40.18
-47.86
-54.12
-57.58
-57.27
-52.91
-45.10
-35.01
-23.98
-13.22
-3.48
4.93
12.01
17.85
22.60
26.29
28.95
30.61
31.43
31.67
31.62
31.51
31.43
31.29
31.00
30.54
30.00
29.50
29.05
28.55
27.74
26.37
24.36
21.72
18.56
15.07
11.46
7.98
4.89
2.33
0.17
-1.94
-4.45
-7.66
-11.55
-15.77
-19.94
-23.87
-27.79
-32.15
-37.34
-43.31
-49.38
-54.31
-56.78
-55.83
-51.18
-43.41
-33.65
-23.19
-13.04
-3.73
4.68
12.33
19.30
25.40
30.32
33.77
35.76
36.56
36.72
36.77
37.05
37.62
38.29
38.75
38.76
38.22
37.22
35.95
34.53
33.01
31.29
29.19
26.59
23.57
20.35
17.30
14.70
12.68
11.09
9.64
7.97
5.78
2.97
-0.39
-4.07
-7.79
-11.33
-14.63
-17.78
-21.05
-24.75
-29.15
-34.41
-40.42
-46.77
-52.75
-57.39
-59.69
-58.81
-54.38
-46.71
-36.68
-25.56
-14.63
-4.85
3.32
9.80
14.78
18.55
21.27
23.08
24.12
24.66
25.03
25.59
26.54
27.75
28.82
29.25
28.72
27.29
25.42
23.80
22.94
22.90
23.30
23.53
23.01
21.53
19.13
16.04
12.55
8.94
5.51
2.59
0.37
-1.21
-2.46
-3.88
-5.88
-8.55
-11.80
-15.42
-19.25
-23.25
-27.49
-31.95
-36.54
-41.14
-45.59
-49.63
-52.83
-54.50
-53.98
-50.84
-45.10
-37.31
-28.31
-18.89
-9.73
-1.27
6.19
12.36
17.03
20.19
21.99
22.81
23.04
23.02
22.96
23.00
23.22
23.67
24.29
24.90
25.28
25.30
24.88
24.08
23.02
21.72
20.15
18.19
15.85
13.24
10.60
8.20
6.15
4.29
2.30
-0.16
-3.26
-6.85
-10.50
-13.68
-16.08
-17.77
-19.21
-21.15
-24.27
-28.90
-34.89
-41.56
-47.88
-52.71
-54.99
-54.03
-49.61
-42.10
-32.37
-21.62
-11.08
-1.69
6.03
12.00
16.43
19.61
21.77
23.09
23.69
23.73
23.44
23.12
22.98
23.17
23.62
24.10
24.29
23.95
22.97
21.47
19.67
17.84
16.11
14.46
12.75
10.69
7.94
4.25
-0.35
-5.46
-10.46
-14.62
-17.47
-19.05
-19.90
-20.84
-22.62
-25.73
-30.25
-35.88
-41.98
-47.58
-51.50
-52.53
-49.84
-43.33
-33.69
-22.33
-10.82
-0.45
7.92
13.96
17.72
19.54
19.89
19.37
18.59
18.07
18.07
18.59
19.41
20.23
20.63
20.32
19.17
17.35
15.22
13.29
11.89
10.96
10.10
8.74
6.47
3.22
-0.76
-5.09
-9.43
-13.61
-17.56
-21.34
-25.10
-29.14
-33.76
-39.14
-44.94
-50.19
-53.57
-53.77
-50.13
-42.90
-33.21
-22.55
-12.23
-3.06
4.77
11.39
17.04
21.77
25.45
27.96
29.29
29.72
29.73
29.84
30.39
31.36
32.39
32.91
32.44
30.86
28.47
25.83
23.48
21.67
20.21
18.57
16.16
12.65
8.09
2.88
-2.42
-7.33
-11.68
-15.60
-19.49
-23.82
-28.98
-35.08
-41.88
-48.84
-55.10
-59.67
-61.63
-60.32
-55.55
-47.67
-37.53
-26.27
-14.99
-4.47
4.91
13.13
20.33
26.53
31.58
35.23
37.32
37.97
37.55
36.66
35.84
35.47
35.60
36.04
36.43
36.42
35.71
34.18
31.83
28.76
25.15
21.18
17.03
12.83
8.67
4.60
0.65
-3.08
-6.53
-9.68
-12.67
-15.82
-19.56
-24.28
-30.20
-37.16
-44.66
-51.93
-57.99
-61.86
-62.70
-60.00
-53.80
-44.72
-33.83
-22.40
-11.50
-1.72
6.85
14.37
21.07
26.96
31.84
35.45
37.61
38.37
37.99
36.90
35.68
34.81
34.62
35.14
36.12
37.06
37.46
36.96
35.41
32.92
29.69
25.93
21.81
17.41
12.87
8.35
4.02
0.03
-3.59
-6.93
-10.20
-13.62
-17.33
-21.39
-25.75
-30.34
-35.19
-40.38
-45.91
-51.56
-56.66
-60.20
-60.95
-58.02
-51.19
-41.10
-29.04
-16.57
-4.99
4.95
13.11
19.68
25.00
29.27
32.51
34.70
35.86
36.21
36.07
35.83
35.79
36.07
36.56
37.02
37.13
36.65
35.49
33.74
31.60
29.26
26.81
24.25
21.47
18.33
14.75
10.74
6.42
1.96
-2.42
-6.59
-10.43
-13.93
-17.14
-20.18
-23.31
-26.85
-31.20
-36.59
-42.87
-49.38
-55.00
-58.35
-58.29
-54.24
-46.42
-35.72
-23.42
-10.89
0.71
10.60
18.35
23.81
27.10
28.52
28.55
27.81
26.93
26.48
26.75
27.74
29.19
30.59
31.48
31.56
30.76
29.23
27.23
25.05
22.83
20.67
18.57
16.49
14.32
11.91
9.12
5.84
2.06
-2.08
-6.31
-10.37
-14.03
-17.21
-20.00
-22.67
-25.60
-29.21
-33.79
-39.32
-45.35
-50.89
-54.68
-55.48
-52.49
-45.67
-35.81
-24.22
-12.40
-1.56
7.60
14.88
20.38
24.29
26.75
27.88
27.88
27.13
26.17
25.53
25.56
26.30
27.50
28.70
29.48
29.57
28.88
27.50
25.63
23.45
21.04
18.42
15.49
12.12
8.30
4.16
-0.04
-3.98
-7.48
-10.56
-13.44
-16.42
-19.71
-23.37
-27.44
-31.90
-36.73
-41.78
-46.61
-50.39
-52.08
-50.78
-46.04
-38.07
-27.75
-16.33
-5.14
4.78
12.77
18.63
22.47
24.57
25.26
24.97
24.16
23.38
23.10
23.56
24.64
25.85
26.52
26.14
24.58
22.17
19.49
17.07
15.07
13.28
11.30
8.75
5.48
1.67
-2.37
-6.31
-9.97
-13.34
-16.57
-19.87
-23.42
-27.27
-31.35
-35.51
-39.47
-42.82
-45.01
-45.37
-43.33
-38.63
-31.45
-22.43
-12.58
-2.91
5.76
12.95
18.44
22.20
24.26
24.74
23.88
22.09
19.93
17.96
16.57
16.00
16.17
16.82
17.56
18.04
17.99
17.23
15.65
13.19
9.87
5.82
1.30
-3.27
-7.47
-10.98
-13.80
-16.24
-18.89
-22.33
-27.01
-33.01
-39.87
-46.76
-52.49
-55.78
-55.59
-51.46
-43.65
-33.14
-21.30
-9.59
0.88
9.44
15.91
20.40
23.18
24.60
25.03
24.87
24.49
24.13
23.88
23.72
23.54
23.22
22.65
21.79
20.60
19.11
17.34
15.27
12.71
9.48
5.42
0.60
-4.63
-9.77
-14.33
-18.14
-21.45
-24.76
-28.67
-33.64
-39.72
-46.47
-53.04
-58.23
-60.79
-59.75
-54.73
-46.17
-35.10
-22.91
-10.84
0.23
9.89
18.00
24.56
29.56
33.01
35.03
35.88
35.97
35.67
35.28
34.98
34.73
34.36
33.67
32.49
30.76
28.63
26.31
24.04
21.86
19.60
16.97
13.65
9.56
4.82
-0.21
-5.21
-9.93
-14.37
-18.74
-23.41
-28.77
-35.06
-42.23
-49.79
-56.88
-62.36
-65.07
-64.17
-59.42
-51.31
-40.91
-29.56
-18.48
-8.48
0.21
7.72
14.32
20.17
25.17
29.06
31.57
32.61
32.36
31.19
29.60
27.98
26.60
25.56
24.83
24.28
23.78
23.18
22.35
21.15
19.51
17.47
15.32
13.53
12.73
13.37
15.54
18.73
22.03
24.35
24.88
23.30
19.85
15.18
10.01
4.89
0.09
-4.50
-9.21
-14.52
-20.90
-28.62
-37.53
-46.89
-55.43
-61.50
-63.61
-60.85
-53.28
-41.88
-28.32
-14.41
-1.59
9.40
18.52
26.15
32.74
38.49
43.33
47.02
49.44
50.69
51.14
51.22
51.23
51.23
51.09
50.57
49.60
48.25
46.75
45.33
44.07
42.81
41.19
38.80
35.39
30.97
25.98
21.02
16.67
13.19
10.41
7.79
4.72
0.84
-3.84
-8.96
-14.04
-18.70
-22.87
-26.72
-30.58
-34.81
-39.78
-45.70
-52.56
-59.94
-67.02
-72.59
-75.33
-74.27
-69.03
-59.99
-48.18
-34.96
-21.62
-9.12
2.03
11.70
20.00
27.04
32.88
37.47
40.78
42.82
43.74
43.80
43.39
42.83
42.37
42.16
42.14
42.14
41.97
41.44
40.43
38.88
36.74
33.97
30.57
26.68
22.60
18.77
15.53
12.99
10.88
8.64
5.72
1.78
-3.13
-8.57
-13.94
-18.68
-22.51
-25.50
-28.02
-30.72
-34.22
-39.05
-45.32
-52.67
-60.18
-66.48
-70.08
-69.78
-64.93
-55.81
-43.50
-29.59
-15.80
-3.47
6.64
14.42
20.17
24.36
27.42
29.64
31.27
32.54
33.69
34.87
36.13
37.27
38.04
38.15
37.45
36.07
34.31
32.54
31.02
29.76
28.51
26.87
24.52
21.42
17.83
14.17
10.85
7.96
5.26
2.30
-1.30
-5.62
-10.41
-15.17
-19.46
-23.12
-26.31
-29.46
-33.07
-37.58
-43.19
-49.77
-56.75
-63.15
-67.71
-69.21
-66.85
-60.52
-50.87
-39.15
-26.78
-14.99
-4.52
4.39
11.90
18.32
23.79
28.22
31.39
33.08
33.36
32.66
31.63
30.86
30.61
30.78
31.07
31.24
31.22
31.09
30.89
30.47
29.50
27.63
24.77
21.15
17.28
13.66
10.62
8.17
5.98
3.59
0.62
-3.10
-7.48
-12.16
-16.76
-20.99
-24.79
-28.33
-31.86
-35.65
-39.97
-45.06
-50.95
-57.43
-63.75
-68.64
-70.65
-68.56
-61.94
-51.36
-38.20
-24.18
-10.82
0.90
10.58
18.21
23.95
27.96
30.40
31.50
31.60
31.11
30.53
30.29
30.64
31.60
32.87
33.99
34.50
34.10
32.73
30.56
27.87
24.92
21.98
19.24
16.76
14.46
12.14
9.47
6.19
2.19
-2.44
-7.39
-12.26
-16.72
-20.51
-23.54
-25.98
-28.27
-31.01
-34.82
-40.04
-46.38
-52.93
-58.22
-60.70
-59.19
-53.20
-43.21
-30.47
-16.66
-3.44
7.93
16.76
22.96
26.81
28.68
28.97
28.07
26.46
24.79
23.67
23.53
24.38
25.78
27.06
27.61
27.12
25.68
23.64
21.39
19.24
17.32
15.50
13.49
10.97
7.68
3.60
-0.99
-5.66
-10.00
-13.82
-17.25
-20.60
-24.22
-28.38
-33.15
-38.36
-43.60
-48.18
-51.19
-51.71
-49.09
-43.15
-34.38
-23.69
-12.18
-0.88
9.38
18.01
24.55
28.74
30.60
30.45
28.87
26.59
24.26
22.45
21.46
21.36
21.93
22.74
23.23
22.95
21.68
19.49
16.63
13.35
9.77
5.93
1.87
-2.29
-6.37
-10.18
-13.69
-16.99
-20.39
-24.25
-28.92
-34.59
-41.24
-48.40
-55.17
-60.34
-62.69
-61.33
-56.05
-47.35
-36.26
-24.07
-11.94
-0.72
9.15
17.58
24.59
30.19
34.29
36.76
37.54
36.84
35.18
33.21
31.52
30.39
29.73
29.28
28.82
28.27
27.67
27.02
26.09
24.44
21.61
17.29
11.54
4.79
-2.27
-8.82
-14.24
-18.27
-21.19
-23.67
-26.71
-31.20
-37.65
-45.97
-55.44
-64.81
-72.57
-77.14
-77.28
-72.40
-62.82
-49.75
-34.99
-20.41
-7.37
3.53
12.43
19.84
26.24
31.87
36.70
40.58
43.38
45.13
45.92
45.89
45.20
44.03
42.55
40.96
39.38
37.89
36.48
35.06
33.46
31.43
28.67
24.91
20.08
14.31
8.01
1.70
-4.12
-9.13
-13.32
-17.01
-20.78
-25.27
-31.03
-38.23
-46.54
-55.05
-62.45
-67.28
-68.35
-65.01
-57.38
-46.38
-33.41
-19.97
-7.29
3.95
13.59
21.85
28.94
34.97
39.84
43.41
45.69
46.85
47.21
47.08
46.63
45.83
44.61
42.91
40.88
38.75
36.83
35.29
34.10
32.95
31.35
28.82
25.05
20.04
14.15
7.94
2.01
-3.25
-7.69
-11.41
-14.68
-17.92
-21.58
-26.15
-32.01
-39.23
-47.41
-55.67
-62.68
-67.06
-67.70
-64.08
-56.41
-45.51
-32.65
-19.16
-6.21
5.48
15.58
24.10
31.15
36.69
40.58
42.65
42.94
41.82
39.95
38.03
36.55
35.63
35.09
34.63
34.04
33.23
32.21
31.01
29.57
27.85
25.81
23.42
20.68
17.50
13.78
9.44
4.53
-0.74
-5.99
-10.83
-14.95
-18.31
-21.12
-23.84
-27.02
-31.19
-36.64
-43.31
-50.71
-57.91
-63.75
-66.93
-66.41
-61.69
-52.97
-41.23
-27.93
-14.62
-2.57
7.55
15.67
22.14
27.33
31.45
34.39
36.00
36.21
35.35
34.01
32.88
32.41
32.64
33.27
33.85
34.04
33.79
33.22
32.40
31.24
29.51
26.93
23.46
19.36
15.03
10.83
6.90
3.21
-0.44
-4.13
-7.84
-11.51
-15.11
-18.80
-22.77
-27.26
-32.38
-38.06
-44.11
-50.21
-55.81
-60.11
-62.17
-61.12
-56.53
-48.62
-38.28
-26.78
-15.34
-4.77
4.59
12.72
19.73
25.59
30.17
33.28
34.90
35.22
34.62
33.63
32.65
31.96
31.60
31.48
31.53
31.66
31.77
31.68
31.07
29.61
27.08
23.55
19.36
15.03
10.94
7.21
3.72
0.25
-3.32
-6.91
-10.34
-13.53
-16.58
-19.81
-23.60
-28.32
-34.07
-40.71
-47.68
-54.12
-58.99
-61.27
-60.21
-55.58
-47.72
-37.47
-26.00
-14.48
-3.84
5.45
13.36
20.13
25.90
30.61
33.95
35.62
35.58
34.23
32.30
30.53
29.40
28.97
29.00
29.16
29.20
29.00
28.49
27.54
25.95
23.62
20.54
16.90
13.00
9.10
5.39
1.91
-1.40
-4.70
-8.11
-11.71
-15.50
-19.45
-23.48
-27.62
-32.00
-36.84
-42.25
-48.14
-54.15
-59.62
-63.70
-65.49
-64.25
-59.56
-51.53
-40.82
-28.53
-15.86
-3.84
6.95
16.30
24.19
30.55
35.22
37.99
38.86
38.15
36.50
34.65
33.21
32.64
33.08
34.35
35.97
37.33
37.71
36.60
33.88
29.89
25.24
20.58
16.32
12.63
9.43
6.53
3.73
0.79
-2.52
-6.37
-10.82
-15.75
-20.95
-26.17
-31.29
-36.33
-41.45
-46.83
-52.54
-58.27
-63.38
-66.82
-67.46
-64.47
-57.60
-47.44
-35.18
-22.14
-9.44
2.30
12.77
21.85
29.24
34.63
37.82
38.95
38.55
37.35
36.06
35.17
34.85
35.03
35.49
35.93
36.04
35.54
34.26
32.17
29.38
26.12
22.61
19.10
15.73
12.52
9.34
6.03
2.39
-1.65
-6.06
-10.65
-15.24
-19.72
-24.13
-28.58
-33.27
-38.38
-44.03
-50.12
-56.26
-61.66
-65.21
-65.79
-62.61
-55.54
-45.23
-32.87
-19.81
-7.20
4.19
13.99
22.04
28.31
32.82
35.66
37.00
37.15
36.49
35.49
34.57
34.05
33.96
34.13
34.17
33.74
32.63
30.90
28.71
26.28
23.74
21.14
18.51
15.80
12.95
9.79
6.13
1.86
-2.98
-8.08
-13.04
-17.51
-21.40
-24.90
-28.39
-32.37
-37.19
-43.00
-49.62
-56.44
-62.46
-66.44
-67.13
-63.73
-56.16
-45.12
-31.99
-18.39
-5.74
5.07
13.69
20.23
25.00
28.32
30.44
31.58
31.96
31.93
31.86
32.06
32.60
33.30
33.79
33.71
32.83
31.17
28.98
26.60
24.30
22.16
19.99
17.47
14.28
10.33
5.79
1.05
-3.47
-7.50
-11.04
-14.34
-17.75
-21.52
-25.73
-30.36
-35.36
-40.66
-46.09
-51.12
-54.91
-56.38
-54.60
-49.15
-40.31
-29.02
-16.53
-4.12
7.20
16.76
24.16
29.24
32.02
32.74
31.90
30.13
28.14
26.57
25.82
25.98
26.77
27.70
28.21
27.91
26.71
24.80
22.42
19.76
16.79
13.41
9.56
5.36
1.08
-2.98
-6.64
-9.94
-13.09
-16.40
-20.15
-24.54
-29.69
-35.58
-41.96
-48.31
-53.76
-57.35
-58.12
-55.47
-49.35
-40.25
-29.09
-17.01
-5.14
5.61
14.58
21.41
26.09
28.84
30.16
30.58
30.61
30.61
30.75
31.03
31.23
31.08
30.25
28.60
26.24
23.55
21.04
19.08
17.71
16.53
14.98
12.45
8.70
3.78
-1.93
-7.91
-13.59
-18.57
-22.64
-25.95
-29.00
-32.51
-37.13
-43.08
-49.86
-56.45
-61.47
-63.66
-62.20
-56.89
-48.10
-36.72
-23.91
-10.85
1.46
12.37
21.63
29.21
35.11
39.33
41.83
42.70
42.31
41.23
40.15
39.58
39.69
40.27
40.90
41.03
40.25
38.37
35.50
31.97
28.21
24.58
21.23
18.01
14.63
10.81
6.45
1.68
-3.21
-7.94
-12.39
-16.66
-20.96
-25.53
-30.54
-36.09
-42.22
-48.90
-55.86
-62.61
-68.30
-71.82
-72.10
-68.41
-60.66
-49.52
-36.25
-22.32
-9.01
2.89
13.11
21.75
28.92
34.64
38.86
41.58
42.99
43.49
43.54
43.55
43.67
43.89
44.05
43.96
43.47
42.51
41.06
39.13
36.78
34.08
31.09
27.87
24.51
21.08
17.65
14.19
10.57
6.60
2.14
-2.81
-8.01
-13.11
-17.82
-22.02
-25.92
-29.96
-34.68
-40.59
-47.88
-56.27
-64.82
-72.10
-76.46
-76.56
-71.83
-62.68
-50.29
-36.28
-22.15
-9.06
2.39
12.01
19.92
26.35
31.59
35.84
39.21
41.75
43.45
44.38
44.71
44.61
44.27
43.77
43.17
42.50
41.83
41.19
40.52
39.64
38.26
36.11
33.11
29.36
25.16
20.84
16.70
12.83
9.14
5.44
1.50
-2.77
-7.31
-11.97
-16.52
-20.91
-25.24
-29.76
-34.81
-40.63
-47.22
-54.31
-61.24
-67.03
-70.54
-70.71
-66.88
-59.07
-48.08
-35.23
-22.01
-9.63
1.24
10.48
18.29
24.90
30.38
34.63
37.53
39.02
39.27
38.64
37.58
36.53
35.78
35.43
35.39
35.43
35.33
34.89
34.00
32.60
30.68
28.24
25.31
21.98
18.40
14.75
11.15
7.66
4.25
0.79
-2.80
-6.65
-10.77
-15.15
-19.64
-24.16
-28.69
-33.40
-38.55
-44.33
-50.61
-56.74
-61.67
-64.22
-63.47
-59.07
-51.28
-40.91
-29.00
-16.59
-4.61
6.29
15.63
23.12
28.60
32.04
33.50
33.26
31.81
29.84
28.11
27.19
27.32
28.32
29.75
31.05
31.80
31.71
30.64
28.64
25.88
22.65
19.30
16.11
13.17
10.38
7.53
4.44
1.05
-2.65
-6.62
-10.85
-15.29
-19.85
-24.36
-28.69
-32.93
-37.27
-41.91
-46.74
-51.20
-54.38
-55.27
-53.10
-47.59
-39.08
-28.32
-16.35
-4.25
7.00
16.67
24.30
29.69
32.77
33.58
32.41
29.79
26.55
23.71
22.06
21.88
22.86
24.25
25.28
25.52
24.84
23.43
21.50
19.17
16.43
13.31
9.85
6.16
2.39
-1.37
-5.03
-8.56
-12.09
-15.81
-19.96
-24.70
-30.06
-35.86
-41.83
-47.58
-52.63
-56.32
-57.81
-56.34
-51.55
-43.67
-33.56
-22.39
-11.28
-0.93
8.30
16.25
22.75
27.56
30.48
31.49
30.78
28.80
26.10
23.33
21.06
19.75
19.55
20.30
21.52
22.60
23.04
22.59
21.06
18.35
14.39
9.29
3.39
-2.58
-7.82
-11.78
-14.42
-16.29
-18.27
-21.23
-25.86
-32.34
-40.37
-49.01
-56.89
-62.29
-63.69
-60.26
-52.16
-40.55
-27.21
-13.87
-1.86
8.09
15.87
21.70
25.88
28.79
30.75
32.06
32.95
33.60
34.07
34.36
34.26
33.55
32.02
29.67
26.78
23.93
21.70
20.34
19.67
19.02
17.60
14.85
10.53
4.87
-1.59
-8.20
-14.40
-19.77
-24.25
-28.11
-31.93
-36.46
-42.26
-49.36
-57.18
-64.52
-69.83
-71.66
-69.09
-61.93
-50.88
-37.29
-22.77
-8.81
3.59
14.02
22.39
28.81
33.40
36.33
37.87
38.54
38.88
39.35
40.14
41.10
41.89
42.16
41.62
40.16
37.91
35.11
32.12
29.25
26.65
24.14
21.33
17.79
13.30
8.01
2.27
-3.49
-8.98
-14.13
-19.03
-23.86
-28.87
-34.32
-40.46
-47.26
-54.31
-60.64
-65.06
-66.37
-63.85
-57.42
-47.69
-35.71
-22.65
-9.61
2.57
13.38
22.57
30.13
36.08
40.42
43.15
44.35
44.29
43.55
42.77
42.51
42.94
43.88
44.82
45.23
44.67
42.97
40.21
36.68
32.78
28.90
25.32
22.06
18.94
15.64
11.88
7.59
2.85
-2.20
-7.36
-12.52
-17.59
-22.48
-27.14
-31.72
-36.52
-41.91
-48.09
-54.75
-61.06
-65.76
-67.57
-65.61
-59.71
-50.41
-38.75
-26.01
-13.31
-1.50
8.94
17.83
25.12
30.82
34.94
37.56
38.85
39.17
38.93
38.57
38.39
38.46
38.66
38.79
38.55
37.75
36.30
34.22
31.64
28.78
25.85
22.98
20.18
17.44
14.66
11.79
8.76
5.56
2.15
-1.53
-5.50
-9.72
-14.12
-18.63
-23.26
-28.12
-33.39
-39.21
-45.54
-51.96
-57.71
-61.70
-62.88
-60.52
-54.50
-45.39
-34.31
-22.57
-11.21
-0.85
8.39
16.59
23.78
29.75
34.10
36.57
37.15
36.22
34.46
32.60
31.15
30.34
30.08
30.12
30.17
29.97
29.37
28.28
26.75
24.84
22.64
20.17
17.41
14.37
11.06
7.57
3.98
0.35
-3.32
-7.01
-10.71
-14.37
-17.98
-21.55
-25.24
-29.33
-34.11
-39.71
-45.83
-51.75
-56.32
-58.31
-56.78
-51.49
-42.92
-32.26
-20.92
-10.11
-0.63
7.28
13.73
18.99
23.25
26.59
29.01
30.51
31.16
31.17
30.85
30.48
30.21
30.02
29.75
29.22
28.34
27.15
25.79
24.41
23.06
21.66
20.03
17.97
15.36
12.16
8.41
4.28
0.00
-4.11
-7.76
-10.78
-13.25
-15.48
-17.91
-20.96
-24.94
-29.92
-35.78
-42.19
-48.58
-54.10
-57.74
-58.48
-55.65
-49.17
-39.67
-28.36
-16.65
-5.70
3.74
11.47
17.57
22.27
25.70
27.94
29.10
29.39
29.20
28.93
28.90
29.20
29.70
30.13
30.23
29.83
28.90
27.47
25.64
23.51
21.21
18.85
16.47
14.05
11.47
8.61
5.41
1.92
-1.74
-5.46
-9.16
-12.80
-16.38
-19.91
-23.45
-27.16
-31.30
-36.12
-41.63
-47.44
-52.69
-56.22
-56.95
-54.19
-47.91
-38.76
-27.86
-16.50
-5.76
3.67
11.53
17.92
23.00
26.92
29.67
31.23
31.60
31.02
29.87
28.63
27.71
27.32
27.42
27.82
28.21
28.34
28.03
27.17
25.73
23.71
21.18
18.22
14.96
11.58
8.20
4.92
1.80
-1.16
-4.03
-6.90
-9.88
-13.08
-16.56
-20.38
-24.57
-29.15
-34.12
-39.34
-44.55
-49.27
-52.81
-54.41
-53.45
-49.59
-43.02
-34.34
-24.48
-14.36
-4.75
3.86
11.20
17.10
21.41
24.01
24.95
24.51
23.20
21.68
20.47
19.87
19.87
20.28
20.79
21.16
21.23
20.92
20.24
19.18
17.66
15.58
12.82
9.35
5.32
1.10
-2.86
-6.17
-8.74
-10.81
-12.93
-15.69
-19.58
-24.74
-30.90
-37.36
-43.16
-47.15
-48.29
-45.92
-40.03
-31.26
-20.80
-9.99
0.03
8.57
15.41
20.59
24.24
26.47
27.39
27.18
26.24
25.06
24.08
23.52
23.26
22.97
22.30
21.09
19.44
17.66
16.01
14.56
13.11
11.28
8.72
5.27
1.04
-3.66
-8.45
-12.99
-17.13
-20.92
-24.56
-28.44
-32.89
-38.09
-43.85
-49.53
-54.15
-56.63
-56.10
-52.19
-45.12
-35.64
-24.79
-13.64
-3.04
6.44
14.55
21.22
26.46
30.23
32.53
33.42
33.17
32.20
31.10
30.32
30.07
30.26
30.51
30.46
29.84
28.66
27.02
25.10
22.96
20.53
17.70
14.40
10.67
6.68
2.66
-1.17
-4.76
-8.23
-11.85
-16.00
-20.97
-26.86
-33.37
-39.87
-45.49
-49.25
-50.32
-48.24
-43.04
-35.27
-25.85
-15.83
-6.11
2.81
10.75
17.76
23.88
28.99
32.80
35.09
35.81
35.20
33.77
32.08
30.58
29.51
28.87
28.50
28.16
27.65
26.76
25.38
23.39
20.70
17.30
13.28
8.88
4.48
0.52
-2.71
-5.18
-7.26
-9.55
-12.66
-16.96
-22.39
-28.47
-34.39
-39.18
-41.97
-42.10
-39.34
-33.91
-26.45
-17.84
-9.01
-0.70
6.68
12.97
18.24
22.53
25.85
28.14
29.38
29.67
29.26
28.51
27.76
27.21
26.84
26.48
25.85
24.76
23.16
21.16
18.98
16.85
14.89
13.05
11.16
8.95
6.19
2.83
-0.99
-4.92
-8.57
-11.72
-14.45
-17.11
-20.21
-24.09
-28.79
-33.92
-38.73
-42.37
-44.04
-43.28
-40.00
-34.53
-27.51
-19.70
-11.80
-4.30
2.51
8.49
13.53
17.47
20.15
21.54
21.80
21.33
20.61
20.05
19.86
20.00
20.24
20.26
19.77
18.65
16.94
14.88
12.86
11.24
10.18
9.50
8.80
7.51
5.27
2.05
-1.82
-5.84
-9.51
-12.57
-15.02
-17.08
-19.03
-21.17
-23.68
-26.64
-29.91
-33.16
-35.84
-37.31
-37.02
-34.66
-30.20
-23.95
-16.43
-8.35
-0.47
6.50
11.97
15.63
17.41
17.55
16.46
14.70
12.92
11.68
11.31
11.83
12.90
13.97
14.53
14.28
13.23
11.62
9.76
7.83
5.95
4.13
2.37
0.70
-0.85
-2.33
-3.80
-5.40
-7.20
-9.27
-11.65
-14.41
-17.56
-20.99
-24.38
-27.17
-28.75
-28.59
-26.44
-22.49
-17.24
-11.35
-5.43
0.08
4.94
8.99
12.13
14.23
15.22
15.16
14.28
12.93
11.45
10.18
9.33
9.00
9.19
9.77
10.47
10.96
10.89
10.09
8.51
6.27
3.60
0.71
-2.19
-4.94
-7.41
-9.56
-11.50
-13.45
-15.74
-18.69
-22.45
-26.95
-31.81
-36.34
-39.66
-40.92
-39.56
-35.52
-29.32
-21.88
-14.22
-7.13
-0.98
4.19
8.56
12.26
15.35
17.79
19.59
20.82
21.58
21.93
21.94
21.59
20.88
19.84
18.54
17.08
15.60
14.28
13.26
12.61
12.20
11.67
10.61
8.65
5.76
2.17
-1.66
-5.34
-8.68
-11.77
-14.84
-18.10
-21.60
-25.19
-28.51
-31.10
-32.46
-32.20
-30.10
-26.29
-21.15
-15.26
-9.05
-2.78
3.49
9.69
15.59
20.66
24.34
26.22
26.32
25.12
23.37
21.80
20.97
21.07
21.93
23.16
24.24
24.71
24.32
23.05
21.09
18.71
16.16
13.56
11.04
8.70
6.64
4.86
3.15
1.20
-1.29
-4.45
-8.12
-12.00
-15.81
-19.56
-23.44
-27.67
-32.23
-36.58
-39.86
-41.16
-39.88
-36.06
-30.30
-23.46
-16.41
-9.72
-3.57
2.07
7.29
12.04
16.15
19.40
21.67
23.01
23.64
23.93
24.16
24.52
25.01
25.46
25.63
25.36
24.59
23.38
21.92
20.42
19.04
17.80
16.58
15.14
13.22
10.66
7.51
4.01
0.53
-2.56
-5.10
-7.19
-9.19
-11.52
-14.55
-18.37
-22.71
-27.06
-30.78
-33.28
-34.15
-33.26
-30.73
-26.87
-22.08
-16.80
-11.39
-6.08
-1.04
3.70
8.09
12.06
15.48
18.14
19.91
20.71
20.68
20.06
19.18
18.35
17.82
17.75
18.10
18.69
19.19
19.23
18.54
17.04
14.90
12.41
9.84
7.38
5.06
2.86
0.72
-1.35
-3.33
-5.23
-7.09
-9.01
-11.13
-13.58
-16.50
-20.00
-23.99
-28.22
-32.22
-35.41
-37.29
-37.56
-36.18
-33.31
-29.28
-24.44
-19.22
-13.99
-8.95
-4.14
0.53
5.08
9.36
12.99
15.52
16.66
16.50
15.51
14.36
13.60
13.56
14.20
15.22
16.22
16.78
16.65
15.78
14.28
12.41
10.41
8.46
6.56
4.66
2.68
0.56
-1.68
-4.02
-6.44
-8.92
-11.41
-13.89
-16.35
-18.87
-21.67
-24.87
-28.47
-32.23
-35.58
-37.92
-38.73
-37.75
-35.07
-31.00
-26.00
-20.49
-14.83
-9.25
-3.95
0.93
5.23
8.82
11.61
13.56
14.72
15.21
15.24
15.07
14.88
14.82
14.89
15.01
15.11
15.14
15.06
14.84
14.39
13.54
12.12
10.04
7.37
4.35
1.35
-1.29
-3.38
-4.92
-6.11
-7.23
-8.61
-10.50
-13.06
-16.33
-20.23
-24.45
-28.51
-31.77
-33.58
-33.41
-31.04
-26.67
-20.85
-14.32
-7.82
-1.85
3.37
7.89
11.85
15.34
18.33
20.68
22.26
23.07
23.30
23.23
23.13
23.14
23.22
23.29
23.26
23.11
22.88
22.56
22.07
21.27
20.02
18.21
15.85
13.05
10.03
7.07
4.45
2.37
0.81
-0.41
-1.67
-3.36
-5.73
-8.83
-12.49
-16.36
-19.95
-22.69
-23.96
-23.31
-20.63
-16.26
-10.90
-5.38
-0.35
3.92
7.47
10.50
13.13
15.35
17.05
18.11
18.52
18.39
17.85
17.02
16.01
14.94
13.95
13.17
12.65
12.34
12.09
11.71
11.04
9.97
8.50
6.70
4.70
2.65
0.66
-1.19
-2.94
-4.62
-6.35
-8.21
-10.28
-12.57
-14.93
-17.05
-18.51
-18.85
-17.74
-15.14
-11.33
-6.77
-2.04
2.33
6.03
8.88
10.89
12.15
12.76
12.77
12.25
11.26
9.93
8.46
7.06
5.94
5.16
4.67
4.34
4.01
3.58
2.97
2.13
0.99
-0.50
-2.35
-4.46
-6.64
-8.74
-10.66
-12.43
-14.21
-16.21
-18.57
-21.25
-23.99
-26.31
-27.63
-27.51
-25.76
-22.55
-18.33
-13.67
-9.03
-4.70
-0.83
2.52
5.28
7.35
8.72
9.53
9.97
10.25
10.42
10.37
9.95
9.08
7.84
6.54
5.47
4.85
4.73
4.91
5.06
4.80
3.88
2.16
-0.23
-3.04
-5.92
-8.61
-11.00
-13.22
-15.44
-17.80
-20.34
-22.96
-25.54
-27.86
-29.65
-30.54
-30.11
-28.03
-24.27
-19.27
-13.75
-8.53
-4.07
-0.41
2.84
6.08
9.43
12.63
15.18
16.61
16.82
16.15
15.21
14.59
14.59
15.09
15.69
15.94
15.59
14.63
13.26
11.75
10.23
8.63
6.73
4.30
1.28
-2.13
-5.56
-8.58
-10.95
-12.69
-14.08
-15.52
-17.34
-19.80
-22.99
-26.91
-31.45
-36.30
-40.93
-44.59
-46.50
-46.02
-43.00
-37.79
-31.19
-24.13
-17.40
-11.41
-6.18
-1.47
2.99
7.33
11.50
15.26
18.39
20.71
22.22
23.01
23.27
23.18
22.89
22.51
22.13
21.81
21.58
21.40
21.16
20.73
19.97
18.82
17.28
15.40
13.24
10.81
8.09
5.04
1.75
-1.67
-5.01
-8.13
-10.99
-13.69
-16.41
-19.32
-22.53
-26.15
-30.21
-34.77
-39.75
-44.79
-49.23
-52.19
-52.81
-50.55
-45.42
-37.97
-29.12
-19.93
-11.22
-3.52
2.98
8.35
12.70
16.17
18.86
20.92
22.61
24.27
26.17
28.30
30.42
32.07
32.84
32.59
31.55
30.13
28.75
27.59
26.68
25.90
25.11
24.20
23.07
21.59
19.65
17.22
14.32
11.06
7.50
3.67
-0.37
-4.47
-8.42
-12.02
-15.18
-18.04
-20.89
-24.12
-28.01
-32.75
-38.27
-44.29
-50.12
-54.77
-57.18
-56.53
-52.62
-45.97
-37.63
-28.74
-20.13
-12.14
-4.69
2.38
9.08
15.18
20.35
24.30
26.93
28.41
29.07
29.27
29.39
29.67
30.28
31.16
32.16
33.01
33.45
33.27
32.37
30.79
28.69
26.26
23.70
21.16
18.66
16.14
13.51
10.65
7.49
4.07
0.47
-3.20
-6.88
-10.57
-14.40
-18.54
-23.18
-28.39
-34.07
-39.79
-44.83
-48.27
-49.20
-47.06
-41.77
-33.90
-24.46
-14.64
-5.45
2.55
9.27
14.94
19.87
24.25
28.03
31.02
33.03
34.03
34.18
33.83
33.35
32.98
32.82
32.75
32.60
32.23
31.56
30.59
29.35
27.80
25.87
23.46
20.54
17.18
13.64
10.18
7.03
4.18
1.48
-1.40
-4.79
-8.88
-13.69
-19.14
-25.05
-31.18
-37.22
-42.69
-46.93
-49.19
-48.85
-45.56
-39.48
-31.20
-21.68
-11.96
-2.87
5.05
11.64
16.95
21.12
24.20
26.19
27.16
27.33
27.11
26.97
27.20
27.82
28.57
29.17
29.43
29.33
28.92
28.21
27.07
25.35
23.02
20.13
16.88
13.44
9.91
6.37
2.95
-0.22
-3.07
-5.73
-8.62
-12.23
-17.01
-22.98
-29.76
-36.56
-42.41
-46.35
-47.57
-45.65
-40.57
-32.82
-23.36
-13.34
-3.83
4.45
11.20
16.53
20.63
23.71
25.85
27.12
27.68
27.82
27.88
28.17
28.73
29.34
29.64
29.29
28.13
26.32
24.19
22.07
20.10
18.16
15.94
13.13
9.64
5.65
1.54
-2.35
-5.80
-8.89
-11.91
-15.24
-19.19
-23.88
-29.23
-34.90
-40.33
-44.75
-47.30
-47.22
-44.07
-37.90
-29.35
-19.46
-9.38
-0.12
7.78
14.14
19.03
22.63
25.09
26.50
26.97
26.69
25.89
24.86
23.85
22.97
22.22
21.56
20.90
20.24
19.58
18.92
18.07
16.68
14.33
10.73
6.04
0.75
-4.31
-8.46
-11.39
-13.35
-14.97
-17.07
-20.32
-25.07
-31.15
-37.80
-43.76
-47.51
-47.70
-43.66
-35.67
-24.92
-13.12
-1.91
7.59
14.74
19.43
21.83
22.28
21.35
19.73
18.16
17.20
17.09
17.71
18.69
19.69
20.36
20.51
20.03
18.83
16.93
14.42
11.43
8.16
4.75
1.24
-2.34
-5.94
-9.56
-13.20
-16.95
-20.97
-25.44
-30.42
-35.75
-40.90
-45.09
-47.37
-46.87
-43.16
-36.40
-27.30
-16.96
-6.54
3.06
11.30
17.98
23.11
26.70
28.76
29.38
28.78
27.40
25.79
24.38
23.41
22.86
22.58
22.40
22.21
21.89
21.28
20.17
18.29
15.45
11.67
7.15
2.21
-2.78
-7.56
-11.96
-15.99
-19.83
-23.80
-28.30
-33.70
-40.08
-47.08
-53.79
-58.93
-61.14
-59.45
-53.64
-44.34
-32.83
-20.62
-8.98
1.36
10.21
17.73
24.05
29.17
32.92
35.15
35.99
35.81
35.15
34.49
34.10
33.94
33.76
33.25
32.25
30.83
29.18
27.55
25.98
24.26
21.99
18.81
14.53
9.31
3.57
-2.16
-7.50
-12.25
-16.49
-20.49
-24.65
-29.42
-35.14
-41.78
-48.89
-55.42
-60.03
-61.40
-58.71
-51.95
-41.91
-29.87
-17.24
-5.14
5.75
15.20
23.22
29.93
35.29
39.25
41.74
42.82
42.77
42.03
41.13
40.42
40.01
39.74
39.29
38.36
36.82
34.71
32.25
29.68
27.09
24.42
21.44
17.91
13.67
8.73
3.39
-1.99
-7.07
-11.68
-15.89
-19.95
-24.21
-29.01
-34.62
-41.08
-48.12
-54.98
-60.54
-63.44
-62.59
-57.51
-48.66
-37.23
-24.76
-12.61
-1.61
8.03
16.44
23.80
30.05
34.98
38.30
39.94
40.11
39.31
38.18
37.25
36.88
37.09
37.66
38.19
38.29
37.66
36.23
34.10
31.50
28.67
25.70
22.63
19.36
15.81
11.93
7.76
3.38
-1.08
-5.47
-9.68
-13.65
-17.43
-21.19
-25.24
-29.89
-35.34
-41.58
-48.29
-54.81
-60.16
-63.23
-63.06
-59.12
-51.56
-41.22
-29.42
-17.54
-6.65
2.77
10.76
17.57
23.44
28.32
31.99
34.27
35.16
34.99
34.29
33.59
33.22
33.28
33.62
33.99
34.10
33.63
32.34
30.10
27.07
23.55
20.01
16.82
14.03
11.43
8.66
5.48
1.87
-2.02
-6.01
-10.06
-14.25
-18.65
-23.18
-27.61
-31.82
-35.87
-39.98
-44.32
-48.64
-52.22
-53.97
-52.83
-48.26
-40.47
-30.35
-19.17
-8.10
2.04
10.86
18.24
24.13
28.28
30.42
30.52
29.02
26.83
25.17
24.90
26.24
28.59
30.94
32.36
32.39
31.10
28.90
26.20
23.27
20.21
17.08
13.93
10.79
7.68
4.50
1.15
-2.36
-5.93
-9.40
-12.69
-15.86
-19.16
-22.86
-27.18
-32.04
-37.04
-41.50
-44.51
-45.20
-43.03
-37.91
-30.31
-21.04
-11.11
-1.38
7.45
14.93
20.77
24.77
26.90
27.33
26.47
24.95
23.38
22.24
21.68
21.58
21.59
21.41
20.84
19.88
18.63
17.20
15.58
13.71
11.44
8.65
5.29
1.52
-2.32
-5.80
-8.61
-10.72
-12.46
-14.42
-17.30
-21.52
-27.08
-33.46
-39.72
-44.73
-47.43
-47.11
-43.54
-37.06
-28.47
-18.80
-9.13
-0.31
7.15
13.09
17.47
20.40
22.00
22.49
22.17
21.51
20.98
20.87
21.09
21.25
20.87
19.67
17.78
15.71
14.05
13.13
12.76
12.37
11.26
8.92
5.21
0.39
-5.01
-10.40
-15.26
-19.28
-22.46
-25.12
-27.86
-31.24
-35.59
-40.71
-45.89
-50.08
-52.15
-51.22
-46.95
-39.56
-29.83
-18.93
-8.11
1.62
9.71
16.09
20.87
24.23
26.24
26.99
26.72
25.99
25.42
25.48
26.22
27.25
27.90
27.69
26.40
24.21
21.53
18.80
16.33
14.22
12.36
10.49
8.25
5.31
1.59
-2.69
-7.14
-11.30
-14.92
-18.07
-21.14
-24.59
-28.78
-33.77
-39.33
-44.89
-49.73
-52.91
-53.62
-51.25
-45.74
-37.58
-27.74
-17.36
-7.37
1.72
9.81
17.00
23.32
28.61
32.60
35.03
35.96
35.74
34.86
33.86
33.10
32.68
32.54
32.50
32.40
32.04
31.29
30.04
28.23
25.88
23.12
20.17
17.29
14.63
12.18
9.78
7.18
4.18
0.71
-3.12
-7.12
-11.07
-14.87
-18.56
-22.28
-26.26
-30.75
-35.89
-41.64
-47.59
-52.96
-56.69
-57.71
-55.29
-49.35
-40.48
-29.83
-18.75
-8.29
0.96
8.94
15.84
21.88
27.08
31.27
34.27
36.07
36.90
37.18
37.30
37.43
37.54
37.44
36.99
36.16
35.03
33.75
32.44
31.16
29.88
28.52
26.95
25.03
22.68
19.90
16.82
13.64
10.52
7.50
4.52
1.43
-1.85
-5.23
-8.54
-11.61
-14.40
-17.04
-19.78
-22.88
-26.54
-30.90
-35.95
-41.62
-47.62
-53.39
-58.10
-60.78
-60.59
-57.12
-50.57
-41.76
-31.85
-21.98
-12.92
-4.94
2.15
8.70
14.96
20.84
25.99
29.92
32.31
33.18
32.88
31.98
31.00
30.30
29.94
29.81
29.74
29.60
29.34
28.95
28.39
27.56
26.23
24.24
21.54
18.25
14.78
11.57
8.97
7.00
5.35
3.52
1.05
-2.23
-6.09
-10.10
-13.78
-16.90
-19.55
-22.07
-24.94
-28.53
-33.01
-38.24
-43.74
-48.78
-52.43
-53.83
-52.33
-47.76
-40.41
-31.02
-20.63
-10.35
-1.12
6.49
12.33
16.59
19.64
21.87
23.48
24.51
24.96
24.91
24.54
24.16
24.00
24.12
24.38
24.55
24.39
23.84
22.96
21.87
20.64
19.23
17.53
15.43
12.97
10.25
7.48
4.74
2.03
-0.77
-3.72
-6.75
-9.59
-11.92
-13.58
-14.69
-15.68
-17.12
-19.54
-23.21
-28.05
-33.55
-38.90
-43.08
-45.01
-43.94
-39.59
-32.34
-23.19
-13.43
-4.30
3.34
9.16
13.30
16.10
17.89
18.90
19.26
19.10
18.63
18.11
17.76
17.69
17.81
17.91
17.74
17.10
15.96
14.47
12.85
11.35
10.09
9.01
7.88
6.39
4.31
1.56
-1.71
-5.18
-8.48
-11.35
-13.67
-15.55
-17.28
-19.23
-21.71
-24.91
-28.76
-32.91
-36.71
-39.40
-40.23
-38.64
-34.47
-27.99
-19.89
-11.14
-2.72
4.57
10.30
14.38
16.93
18.17
18.34
17.74
16.73
15.70
14.98
14.70
14.80
15.02
15.07
14.78
14.14
13.24
12.17
10.96
9.65
8.24
6.73
5.06
3.12
0.74
-2.15
-5.44
-8.87
-12.16
-15.20
-18.01
-20.86
-24.02
-27.66
-31.67
-35.64
-38.90
-40.59
-39.98
-36.70
-30.91
-23.29
-14.88
-6.70
0.57
6.64
11.53
15.33
18.08
19.66
20.04
19.38
18.08
16.64
15.60
15.24
15.57
16.35
17.25
17.94
18.16
17.77
16.70
14.89
12.34
9.17
5.61
1.98
-1.37
-4.23
-6.58
-8.64
-10.76
-13.34
-16.74
-21.15
-26.53
-32.60
-38.74
-44.05
-47.49
-48.17
-45.56
-39.76
-31.51
-21.97
-12.42
-3.85
3.23
8.86
13.49
17.66
21.69
25.60
29.10
31.71
33.06
33.05
31.89
30.04
28.06
26.44
25.45
25.16
25.38
25.78
26.02
25.80
24.92
23.30
20.96
17.97
14.51
10.76
6.99
3.47
0.34
-2.42
-4.98
-7.65
-10.67
-14.12
-17.95
-22.01
-26.23
-30.69
-35.52
-40.78
-46.26
-51.38
-55.21
-56.73
-55.14
-50.19
-42.30
-32.45
-21.91
-11.76
-2.65
5.35
12.49
19.06
25.13
30.48
34.75
37.63
39.13
39.51
39.22
38.68
38.19
37.80
37.47
37.07
36.54
35.86
35.07
34.17
33.07
31.62
29.65
27.15
24.33
21.61
19.37
17.76
16.52
15.04
12.68
9.10
4.46
-0.63
-5.39
-9.24
-12.06
-14.12
-16.00
-18.33
-21.55
-25.86
-31.10
-36.73
-41.87
-45.44
-46.41
-44.15
-38.66
-30.59
-21.10
-11.52
-2.88
4.27
9.93
14.47
18.26
21.56
24.33
26.42
27.75
28.42
28.70
28.85
29.05
29.26
29.27
28.87
27.97
26.65
25.14
23.67
22.48
21.64
21.04
20.42
19.49
18.02
16.01
13.64
11.17
8.83
6.69
4.59
2.39
0.01
-2.50
-4.99
-7.33
-9.46
-11.50
-13.65
-16.15
-19.20
-22.89
-27.15
-31.63
-35.77
-38.87
-40.28
-39.58
-36.71
-32.04
-26.18
-19.86
-13.72
-8.13
-3.24
1.11
5.12
8.95
12.55
15.71
18.07
19.42
19.72
19.21
18.30
17.33
16.55
16.08
15.94
16.09
16.42
16.76
16.84
16.39
15.18
13.19
10.60
7.76
5.05
2.86
1.35
0.50
0.05
-0.41
-1.32
-2.97
-5.38
-8.31
-11.32
-13.99
-16.09
-17.68
-19.02
-20.52
-22.53
-25.25
-28.60
-32.22
-35.50
-37.74
-38.21
-36.49
-32.58
-26.84
-20.02
-13.01
-6.66
-1.52
2.16
4.43
5.60
6.08
6.19
6.14
6.03
5.90
5.82
5.89
6.29
7.13
8.45
10.13
11.90
13.42
14.38
14.59
13.93
12.46
10.36
7.93
5.51
3.44
1.93
1.03
0.58
0.23
-0.36
-1.47
-3.20
-5.33
-7.50
-9.37
-10.75
-11.71
-12.56
-13.67
-15.28
-17.50
-20.28
-23.49
-27.02
-30.65
-33.99
-36.43
-37.29
-36.01
-32.49
-27.16
-20.92
-14.81
-9.65
-5.75
-2.93
-0.60
1.84
4.69
7.81
10.74
12.87
13.81
13.57
12.49
11.10
9.88
9.10
8.85
9.11
9.78
10.72
11.68
12.35
12.44
11.75
10.23
8.02
5.39
2.65
0.20
-1.60
-2.55
-2.77
-2.65
-2.78
-3.71
-5.62
-8.34
-11.40
-14.28
-16.63
-18.32
-19.45
-20.27
-21.15
-22.46
-24.65
-27.94
-32.21
-36.88
-41.02
-43.59
-43.75
-41.07
-35.69
-28.24
-19.79
-11.53
-4.55
0.49
3.50
4.86
5.27
5.35
5.57
6.16
7.21
8.66
10.40
12.17
13.62
14.40
14.37
13.65
12.56
11.49
10.64
10.01
9.44
8.73
7.79
6.63
5.29
3.87
2.38
0.79
-0.94
-2.85
-4.92
-6.98
-8.76
-10.05
-10.86
-11.47
-12.37
-14.06
-16.83
-20.65
-25.21
-30.14
-35.02
-39.37
-42.62
-44.19
-43.56
-40.49
-35.20
-28.33
-20.71
-13.17
-6.35
-0.61
3.93
7.39
10.08
12.31
14.33
16.14
17.57
18.38
18.47
18.01
17.38
16.95
16.92
17.22
17.68
18.08
18.26
18.16
17.71
16.81
15.39
13.43
10.99
8.22
5.34
2.59
0.21
-1.69
-3.14
-4.40
-5.84
-7.83
-10.55
-13.98
-17.96
-22.32
-26.96
-31.70
-36.14
-39.62
-41.38
-40.82
-37.80
-32.68
-26.17
-19.03
-11.85
-4.92
1.60
7.73
13.42
18.53
22.79
25.94
27.73
28.12
27.36
25.97
24.60
23.81
23.85
24.64
25.93
27.37
28.57
29.22
29.02
27.78
25.50
22.45
19.02
15.65
12.60
10.02
7.88
6.02
4.21
2.18
-0.39
-3.72
-7.78
-12.35
-17.03
-21.51
-25.82
-30.21
-35.10
-40.69
-46.64
-52.06
-55.74
-56.50
-53.68
-47.39
-38.45
-28.09
-17.60
-7.77
1.11
9.16
16.52
23.16
28.78
32.97
35.52
36.59
36.66
36.35
36.13
36.26
36.70
37.29
37.84
38.22
38.34
38.12
37.44
36.18
34.25
31.67
28.60
25.40
22.49
20.12
18.29
16.65
14.63
11.74
7.75
2.83
-2.55
-7.87
-12.74
-16.98
-20.60
-23.81
-26.97
-30.56
-35.03
-40.60
-46.95
-53.10
-57.65
-59.22
-56.94
-50.76
-41.47
-30.36
-18.79
-7.81
1.90
10.11
16.82
22.19
26.37
29.57
31.99
33.81
35.27
36.53
37.65
38.63
39.33
39.67
39.58
39.13
38.41
37.49
36.31
34.83
32.99
30.85
28.50
26.06
23.52
20.75
17.62
14.08
10.17
6.07
1.93
-2.07
-5.83
-9.31
-12.53
-15.65
-18.93
-22.78
-27.52
-33.30
-39.83
-46.35
-51.72
-54.68
-54.22
-49.95
-42.26
-32.26
-21.36
-10.89
-1.71
5.94
12.28
17.63
22.22
26.06
29.05
31.14
32.45
33.23
33.72
34.06
34.24
34.18
33.85
33.35
32.89
32.67
32.71
32.83
32.63
31.67
29.66
26.63
22.90
18.99
15.39
12.35
9.75
7.31
4.70
1.71
-1.67
-5.32
-9.11
-12.93
-16.78
-20.65
-24.60
-28.74
-33.28
-38.48
-44.44
-50.87
-56.93
-61.34
-62.81
-60.44
-54.15
-44.76
-33.68
-22.38
-11.95
-2.88
4.89
11.62
17.43
22.22
25.72
27.74
28.35
27.91
26.98
26.06
25.47
25.39
25.82
26.71
27.91
29.18
30.16
30.46
29.80
28.07
25.40
22.14
18.65
15.33
12.45
10.10
8.14
6.25
3.98
1.02
-2.71
-6.98
-11.39
-15.56
-19.36
-22.86
-26.34
-30.11
-34.40
-39.22
-44.29
-48.99
-52.44
-53.69
-52.01
-47.19
-39.67
-30.35
-20.35
-10.62
-1.80
5.84
12.21
17.33
21.20
23.84
25.30
25.74
25.43
24.76
24.18
24.10
24.65
25.71
26.85
27.61
27.61
26.79
25.34
23.54
21.59
19.56
17.38
14.97
12.28
9.33
6.22
3.06
-0.02
-2.93
-5.68
-8.36
-11.25
-14.72
-19.06
-24.31
-30.09
-35.63
-39.87
-41.80
-40.72
-36.51
-29.61
-20.92
-11.56
-2.48
5.63
12.36
17.58
21.22
23.32
23.98
23.43
22.10
20.47
19.01
18.02
17.49
17.22
16.94
16.54
16.06
15.63
15.30
14.88
13.99
12.24
9.44
5.82
1.93
-1.59
-4.36
-6.38
-8.05
-9.95
-12.65
-16.46
-21.44
-27.31
-33.53
-39.23
-43.33
-44.73
-42.73
-37.28
-29.06
-19.35
-9.60
-0.96
5.95
11.05
14.62
17.07
18.76
19.95
20.73
21.10
21.02
20.43
19.38
18.05
16.68
15.52
14.65
13.99
13.41
12.74
11.84
10.54
8.63
5.91
2.28
-2.09
-6.79
-11.35
-15.48
-19.17
-22.71
-26.45
-30.68
-35.44
-40.46
-45.20
-48.84
-50.50
-49.42
-45.27
-38.33
-29.48
-19.82
-10.35
-1.69
5.92
12.48
17.96
22.20
25.10
26.65
27.14
27.02
26.74
26.70
27.06
27.76
28.55
29.05
28.87
27.77
25.81
23.25
20.46
17.73
15.07
12.39
9.54
6.49
3.32
0.11
-3.16
-6.65
-10.61
-15.24
-20.64
-26.76
-33.42
-40.18
-46.29
-50.78
-52.63
-51.10
-46.08
-38.22
-28.68
-18.74
-9.38
-1.01
6.43
13.27
19.74
25.76
30.98
34.99
37.53
38.69
38.83
38.41
37.80
37.17
36.48
35.74
35.04
34.55
34.36
34.35
34.12
33.16
31.08
27.83
23.67
19.08
14.59
10.68
7.59
5.32
3.61
2.01
-0.05
-2.96
-6.85
-11.49
-16.45
-21.32
-25.91
-30.27
-34.64
-39.25
-44.21
-49.34
-54.20
-58.09
-60.16
-59.60
-55.93
-49.20
-40.06
-29.44
-18.37
-7.59
2.47
11.68
19.88
26.76
31.94
35.05
36.01
35.17
33.23
31.13
29.68
29.36
30.10
31.42
32.63
33.18
32.86
31.79
30.26
28.53
26.68
24.72
22.67
20.57
18.45
16.29
13.92
11.13
7.78
3.94
-0.13
-4.11
-7.77
-10.98
-13.78
-16.36
-19.05
-22.25
-26.36
-31.46
-37.16
-42.50
-46.15
-46.86
-43.95
-37.53
-28.50
-18.15
-7.83
1.43
9.09
15.03
19.44
22.59
24.76
26.12
26.79
26.96
26.86
26.81
27.08
27.77
28.74
29.66
30.13
29.88
28.84
27.13
24.94
22.47
19.81
17.03
14.17
11.26
8.32
5.36
2.31
-0.88
-4.20
-7.59
-10.88
-13.94
-16.71
-19.26
-21.88
-24.93
-28.80
-33.74
-39.64
-45.95
-51.64
-55.36
-55.90
-52.59
-45.66
-36.17
-25.62
-15.39
-6.28
1.62
8.65
15.23
21.47
27.09
31.63
34.68
36.22
36.58
36.32
35.96
35.80
35.83
35.81
35.54
34.97
34.25
33.60
33.09
32.58
31.67
29.97
27.30
23.86
20.11
16.63
13.78
11.60
9.81
7.92
5.43
2.03
-2.23
-6.97
-11.66
-15.75
-18.97
-21.47
-23.74
-26.45
-30.15
-35.07
-41.00
-47.26
-52.80
-56.45
-57.16
-54.28
-47.85
-38.62
-27.84
-16.87
-6.85
1.63
8.44
13.77
17.97
21.37
24.17
26.52
28.50
30.13
31.40
32.38
33.17
33.83
34.28
34.30
33.67
32.35
30.56
28.84
27.64
27.12
27.01
26.73
25.66
23.49
20.24
16.26
12.04
8.12
4.85
2.41
0.70
-0.64
-2.09
-4.07
-6.77
-10.10
-13.86
-17.87
-22.07
-26.44
-30.97
-35.50
-39.92
-44.19
-48.37
-52.46
-56.11
-58.58
-59.00
-56.68
-51.46
-43.86
-34.84
-25.40
-16.34
-8.07
-0.69
5.79
11.38
16.11
19.95
22.92
25.11
26.64
27.63
28.29
28.78
29.26
29.79
30.37
30.88
31.15
30.91
29.93
28.15
25.74
23.06
20.57
18.54
16.98
15.70
14.50
13.22
11.87
10.44
8.78
6.68
3.94
0.54
-3.27
-7.09
-10.60
-13.62
-16.19
-18.42
-20.45
-22.56
-25.10
-28.49
-33.07
-38.87
-45.41
-51.79
-56.91
-59.73
-59.57
-56.22
-50.01
-41.75
-32.59
-23.66
-15.78
-9.26
-3.83
1.06
5.92
10.90
15.75
19.99
23.20
25.19
26.04
26.10
25.81
25.52
25.50
25.82
26.41
27.10
27.74
28.19
28.40
28.18
27.35
25.74
23.37
20.51
17.68
15.35
13.75
12.72
11.81
10.50
8.54
5.90
2.80
-0.48
-3.74
-6.90
-9.97
-12.96
-15.83
-18.54
-21.04
-23.32
-25.49
-27.83
-30.73
-34.54
-39.44
-45.29
-51.49
-57.12
-61.11
-62.51
-60.69
-55.65
-47.85
-38.37
-28.45
-19.26
-11.51
-5.30
-0.23
4.29
8.71
13.09
17.10
20.28
22.35
23.29
23.38
23.08
22.75
22.62
22.74
23.07
23.57
24.20
24.96
25.76
26.46
26.81
26.54
25.40
23.30
20.35
16.90
13.43
10.36
7.94
6.09
4.45
2.60
0.14
-3.06
-6.83
-10.76
-14.44
-17.58
-20.17
-22.47
-24.91
-27.92
-31.79
-36.54
-41.77
-46.74
-50.47
-51.97
-50.58
-46.12
-39.04
-30.28
-21.00
-12.18
-4.46
2.01
7.35
11.72
15.23
17.85
19.54
20.35
20.48
20.27
20.09
20.17
20.62
21.36
22.10
22.53
22.45
21.83
20.81
19.65
18.60
17.70
16.83
15.68
13.89
11.23
7.58
3.11
-1.82
-6.67
-10.90
-14.12
-16.31
-17.85
-19.36
-21.53
-24.80
-29.20
-34.34
-39.45
-43.54
-45.56
-44.70
-40.50
-33.14
-23.46
-12.72
-2.27
6.83
14.03
19.16
22.34
23.81
23.90
23.02
21.78
20.84
20.66
21.40
22.81
24.37
25.47
25.57
24.40
22.04
18.92
15.61
12.70
10.48
8.82
7.30
5.38
2.74
-0.57
-4.39
-8.44
-12.62
-16.89
-21.37
-26.03
-30.84
-35.79
-40.78
-45.61
-49.81
-52.62
-53.27
-51.16
-46.21
-38.80
-29.76
-20.04
-10.53
-1.89
5.52
11.59
16.42
20.25
23.17
25.15
26.13
26.11
25.33
24.26
23.42
23.12
23.34
23.75
23.99
23.87
23.33
22.50
21.39
19.85
17.58
14.36
10.21
5.42
0.53
-3.94
-7.76
-11.05
-14.38
-18.46
-23.85
-30.57
-38.03
-45.10
-50.50
-53.19
-52.63
-48.89
-42.56
-34.54
-25.87
-17.50
-10.06
-3.69
1.85
7.03
12.24
17.46
22.32
26.32
29.07
30.52
30.77
30.06
28.62
26.70
24.64
22.94
22.03
22.05
22.75
23.52
23.65
22.63
20.15
16.20
11.00
5.07
-0.88
-6.03
-9.84
-12.26
-13.94
-15.88
-19.11
-24.09
-30.66
-37.94
-44.62
-49.29
-50.82
-48.57
-42.63
-33.80
-23.34
-12.58
-2.59
6.12
13.38
19.21
23.63
26.62
28.26
28.92
29.13
29.45
30.18
31.26
32.34
33.01
32.88
31.79
29.84
27.36
24.76
22.47
20.66
19.24
17.83
16.01
13.48
10.22
6.38
2.24
-1.97
-6.13
-10.26
-14.39
-18.69
-23.32
-28.39
-33.76
-38.98
-43.22
-45.63
-45.57
-42.81
-37.61
-30.57
-22.38
-13.68
-5.04
3.10
10.38
16.53
21.44
24.99
27.21
28.23
28.32
27.95
27.62
27.69
28.23
29.00
29.62
29.76
29.37
28.56
27.55
26.42
25.11
23.46
21.32
18.66
15.57
12.25
8.90
5.71
2.79
-0.02
-3.01
-6.53
-10.84
-15.93
-21.45
-26.82
-31.38
-34.54
-35.88
-35.15
-32.35
-27.71
-21.68
-14.85
-7.81
-0.98
5.42
11.27
16.47
20.82
24.06
26.01
26.67
26.22
25.00
23.38
21.72
20.28
19.29
18.83
18.85
19.11
19.29
19.04
18.11
16.32
13.63
10.16
6.13
1.93
-1.95
-5.12
-7.44
-9.10
-10.60
-12.56
-15.50
-19.64
-24.78
-30.27
-35.14
-38.29
-38.80
-36.21
-30.68
-22.95
-14.07
-5.06
3.39
10.89
17.31
22.59
26.60
29.24
30.53
30.70
30.15
29.36
28.72
28.41
28.43
28.55
28.50
28.03
27.02
25.53
23.74
21.85
20.00
18.14
16.07
13.52
10.31
6.47
2.24
-1.97
-5.76
-8.94
-11.55
-13.89
-16.44
-19.63
-23.75
-28.81
-34.50
-40.17
-44.91
-47.71
-47.72
-44.54
-38.38
-30.04
-20.71
-11.56
-3.37
3.63
9.66
15.14
20.29
25.05
29.07
31.96
33.55
34.01
33.78
33.34
33.02
32.91
32.89
32.80
32.52
32.07
31.49
30.72
29.60
27.90
25.50
22.46
19.08
15.76
12.84
10.38
8.17
5.82
2.99
-0.43
-4.30
-8.26
-11.95
-15.13
-17.80
-20.18
-22.65
-25.65
-29.55
-34.52
-40.36
-46.48
-51.84
-55.25
-55.69
-52.69
-46.52
-38.15
-28.91
-20.04
-12.33
-5.89
-0.33
4.92
10.26
15.64
20.65
24.73
27.49
28.87
29.20
28.96
28.55
28.16
27.78
27.34
26.84
26.39
26.15
26.13
26.19
26.03
25.34
23.92
21.76
19.01
15.91
12.75
9.82
7.34
5.35
3.75
2.24
0.42
-2.03
-5.24
-9.03
-13.03
-16.82
-20.09
-22.76
-25.02
-27.21
-29.71
-32.91
-37.01
-41.98
-47.45
-52.72
-56.81
-58.69
-57.65
-53.46
-46.58
-38.03
-29.01
-20.58
-13.31
-7.22
-1.98
2.90
7.73
12.54
17.07
20.95
23.85
25.61
26.38
26.45
26.21
26.02
26.05
26.28
26.56
26.75
26.71
26.41
25.82
24.97
23.83
22.38
20.63
18.64
16.51
14.36
12.27
10.29
8.41
6.63
4.95
3.30
1.59
-0.36
-2.73
-5.65
-9.11
-12.96
-16.93
-20.73
-24.15
-27.16
-29.93
-32.71
-35.83
-39.51
-43.85
-48.69
-53.65
-58.06
-61.07
-61.83
-59.74
-54.70
-47.23
-38.28
-29.01
-20.32
-12.67
-6.02
-0.11
5.32
10.34
14.78
18.40
21.08
22.88
24.04
24.86
25.59
26.33
27.09
27.74
28.16
28.24
28.02
27.59
27.10
26.60
26.09
25.44
24.53
23.33
21.90
20.34
18.64
16.75
14.52
11.94
9.18
6.57
4.42
2.79
1.45
-0.05
-2.13
-4.97
-8.40
-12.04
-15.51
-18.57
-21.25
-23.73
-26.25
-29.03
-32.28
-36.15
-40.67
-45.68
-50.70
-54.92
-57.32
-57.06
-53.72
-47.50
-39.27
-30.16
-21.26
-13.25
-6.33
-0.37
4.87
9.48
13.39
16.44
18.62
20.06
21.05
21.87
22.72
23.65
24.63
25.57
26.39
26.97
27.26
27.23
26.97
26.57
26.14
25.61
24.75
23.31
21.17
18.42
15.39
12.50
10.04
8.05
6.34
4.62
2.64
0.26
-2.49
-5.50
-8.56
-11.52
-14.26
-16.78
-19.25
-21.97
-25.27
-29.36
-34.27
-39.65
-44.86
-49.04
-51.34
-51.11
-48.15
-42.67
-35.24
-26.69
-17.83
-9.32
-1.54
5.32
11.23
16.16
20.07
22.88
24.57
25.33
25.49
25.51
25.83
26.62
27.80
29.09
30.15
30.74
30.79
30.37
29.62
28.68
27.64
26.49
25.17
23.59
21.68
19.48
17.11
14.73
12.51
10.42
8.27
5.78
2.71
-0.98
-5.13
-9.42
-13.53
-17.22
-20.40
-23.13
-25.62
-28.23
-31.37
-35.43
-40.63
-46.84
-53.46
-59.52
-63.85
-65.42
-63.59
-58.34
-50.24
-40.36
-29.95
-20.11
-11.56
-4.46
1.56
7.05
12.56
18.22
23.82
28.90
32.99
35.85
37.51
38.22
38.34
38.14
37.94
37.94
38.29
38.99
39.84
40.52
40.62
39.86
38.17
35.69
32.76
29.74
26.97
24.62
22.71
21.04
19.30
17.16
14.45
11.16
7.52
3.84
0.36
-2.79
-5.66
-8.38
-11.15
-14.08
-17.24
-20.60
-24.09
-27.70
-31.53
-35.76
-40.63
-46.29
-52.65
-59.36
-65.68
-70.67
-73.32
-72.82
-68.75
-61.31
-51.28
-39.88
-28.43
-18.01
-9.12
-1.70
4.74
10.76
16.62
22.25
27.28
31.26
33.98
35.54
36.29
36.66
37.00
37.50
38.21
39.10
40.15
41.28
42.34
43.06
43.05
42.07
40.02
37.08
33.68
30.24
27.13
24.49
22.23
20.16
18.06
15.73
13.07
10.12
6.94
3.64
0.31
-3.03
-6.40
-9.86
-13.43
-17.11
-20.85
-24.61
-28.40
-32.30
-36.43
-40.97
-46.07
-51.85
-58.21
-64.72
-70.52
-74.46
-75.33
-72.39
-65.66
-55.95
-44.66
-33.21
-22.59
-13.17
-4.75
3.01
10.31
17.05
22.93
27.61
30.98
33.15
34.42
35.14
35.64
36.17
36.85
37.73
38.75
39.70
40.34
40.48
40.02
38.96
37.42
35.55
33.54
31.53
29.59
27.72
25.78
23.54
20.80
17.52
13.88
10.22
6.89
3.98
1.41
-1.14
-3.98
-7.25
-10.89
-14.74
-18.60
-22.44
-26.31
-30.35
-34.72
-39.52
-44.79
-50.46
-56.24
-61.59
-65.64
-67.38
-65.94
-60.90
-52.56
-41.88
-30.24
-19.01
-9.11
-0.88
5.87
11.54
16.50
20.83
24.44
27.11
28.80
29.66
30.07
30.47
31.19
32.33
33.75
35.11
36.12
36.58
36.51
35.98
35.05
33.65
31.64
28.94
25.62
22.00
18.51
15.52
13.15
11.22
9.31
6.91
3.66
-0.53
-5.39
-10.42
-15.06
-18.91
-21.93
-24.53
-27.33
-31.01
-35.95
-42.10
-48.84
-55.18
-59.88
-61.77
-60.07
-54.57
-45.81
-34.91
-23.27
-12.18
-2.44
5.66
12.27
17.70
22.19
25.81
28.60
30.58
31.87
32.67
33.15
33.44
33.57
33.60
33.57
33.59
33.74
34.05
34.48
34.87
34.89
34.12
32.24
29.05
24.69
19.64
14.54
9.97
6.22
3.21
0.56
-2.15
-5.25
-8.86
-12.89
-17.18
-21.52
-25.83
-30.12
-34.55
-39.41
-45.01
-51.36
-58.03
-64.15
-68.52
-69.97
-67.81
-62.04
-53.34
-42.87
-31.84
-21.26
-11.65
-3.04
4.81
12.19
19.20
25.69
31.30
35.72
38.84
40.75
41.74
42.10
42.01
41.69
41.34
41.21
41.47
42.11
42.84
43.21
42.71
41.02
38.12
34.21
29.68
25.00
20.56
16.61
13.21
10.24
7.35
4.23
0.62
-3.56
-8.16
-12.92
-17.52
-21.69
-25.36
-28.74
-32.34
-36.80
-42.60
-49.72
-57.40
-64.23
-68.56
-69.03
-65.13
-57.29
-46.77
-35.11
-23.66
-13.25
-4.15
3.80
10.96
17.69
24.12
30.13
35.39
39.52
42.26
43.61
43.86
43.44
42.80
42.21
41.72
41.24
40.70
40.12
39.56
39.00
38.21
36.85
34.52
31.12
26.92
22.47
18.37
15.04
12.48
10.30
7.92
4.87
0.99
-3.59
-8.49
-13.33
-17.89
-22.14
-26.17
-30.23
-34.63
-39.69
-45.56
-52.13
-58.82
-64.62
-68.33
-68.87
-65.68
-58.93
-49.45
-38.50
-27.32
-16.80
-7.31
1.22
9.11
16.54
23.43
29.46
34.16
37.22
38.70
39.00
38.70
38.35
38.27
38.53
39.00
39.47
39.81
39.93
39.78
39.24
38.14
36.34
33.75
30.44
26.64
22.74
19.20
16.33
14.15
12.35
10.33
7.48
3.41
-1.82
-7.75
-13.73
-19.16
-23.61
-27.04
-29.73
-32.22
-35.18
-39.31
-44.98
-51.99
-59.44
-65.82
-69.46
-69.05
-64.09
-55.12
-43.45
-30.73
-18.44
-7.55
1.60
9.14
15.41
20.77
25.38
29.25
32.31
34.55
36.05
36.99
37.58
37.94
38.10
38.00
37.58
36.88
36.02
35.09
34.14
33.04
31.54
29.41
26.50
22.91
18.97
15.12
11.76
9.04
6.82
4.68
2.11
-1.25
-5.44
-10.20
-15.07
-19.57
-23.49
-26.91
-30.30
-34.24
-39.24
-45.46
-52.58
-59.71
-65.62
-68.97
-68.71
-64.40
-56.34
-45.57
-33.55
-21.75
-11.23
-2.43
4.83
11.04
16.74
22.11
27.04
31.10
33.91
35.32
35.53
35.01
34.29
33.79
33.71
34.03
34.57
35.06
35.26
34.92
33.87
32.06
29.50
26.32
22.66
18.68
14.57
10.46
6.50
2.77
-0.74
-4.10
-7.47
-11.00
-14.84
-19.09
-23.81
-29.04
-34.75
-40.81
-46.94
-52.62
-57.13
-59.61
-59.30
-55.75
-49.00
-39.71
-28.92
-17.86
-7.51
1.57
9.27
15.74
21.17
25.61
28.94
31.04
31.95
31.91
31.36
30.77
30.54
30.82
31.50
32.25
32.64
32.31
31.06
28.95
26.29
23.43
20.65
18.02
15.42
12.60
9.34
5.56
1.38
-2.95
-7.16
-11.07
-14.66
-18.04
-21.45
-25.17
-29.46
-34.46
-40.12
-46.11
-51.79
-56.18
-58.18
-56.86
-51.83
-43.46
-32.82
-21.40
-10.59
-1.26
6.32
12.41
17.38
21.42
24.45
26.28
26.88
26.50
25.69
25.05
24.97
25.48
26.30
27.04
27.35
27.09
26.33
25.23
23.93
22.47
20.72
18.48
15.59
12.01
7.86
3.43
-0.90
-4.83
-8.22
-11.13
-13.77
-16.48
-19.59
-23.41
-28.09
-33.59
-39.51
-45.10
-49.35
-51.26
-50.11
-45.74
-38.58
-29.56
-19.76
-10.12
-1.21
6.75
13.71
19.53
23.91
26.53
27.24
26.30
24.43
22.52
21.33
21.21
22.04
23.31
24.47
25.08
24.95
24.02
22.39
20.13
17.27
13.85
9.93
5.63
1.23
-2.89
-6.34
-8.96
-10.90
-12.67
-14.94
-18.33
-23.14
-29.31
-36.39
-43.65
-50.08
-54.57
-56.07
-53.86
-47.84
-38.68
-27.67
-16.31
-5.86
3.00
10.16
15.89
20.52
24.17
26.80
28.33
28.84
28.64
28.21
27.98
28.14
28.56
28.89
28.74
27.87
26.33
24.40
22.39
20.52
18.76
16.87
14.49
11.37
7.42
2.79
-2.11
-6.80
-10.83
-14.02
-16.54
-18.93
-21.95
-26.28
-32.26
-39.68
-47.72
-55.16
-60.56
-62.66
-60.71
-54.70
-45.42
-34.20
-22.59
-11.84
-2.64
4.99
11.48
17.32
22.80
27.87
32.24
35.58
37.75
38.85
39.13
38.92
38.47
37.95
37.40
36.83
36.21
35.50
34.65
33.56
32.07
30.09
27.53
24.42
20.84
16.91
12.74
8.42
4.03
-0.34
-4.57
-8.53
-12.17
-15.53
-18.83
-22.38
-26.54
-31.67
-37.90
-45.02
-52.33
-58.61
-62.42
-62.49
-58.24
-50.03
-39.16
-27.33
-16.07
-6.25
1.98
9.00
15.35
21.39
27.21
32.61
37.24
40.75
42.89
43.66
43.29
42.18
40.81
39.52
38.48
37.77
37.43
37.45
37.79
38.17
38.10
37.03
34.59
30.83
26.22
21.53
17.40
14.31
12.27
10.95
9.79
8.21
5.65
1.84
-3.17
-9.00
-15.04
-20.66
-25.45
-29.27
-32.36
-35.21
-38.46
-42.70
-48.24
-54.89
-61.83
-67.71
-70.92
-70.20
-65.09
-56.12
-44.64
-32.38
-20.75
-10.50
-1.68
6.12
13.30
19.99
25.96
30.87
34.48
36.91
38.53
39.78
40.99
42.16
43.10
43.54
43.38
42.76
41.93
41.09
40.27
39.26
37.75
35.57
32.83
29.84
27.01
24.63
22.68
20.87
18.86
16.35
13.31
9.95
6.56
3.37
0.45
-2.36
-5.28
-8.53
-12.14
-16.01
-19.94
-23.71
-27.20
-30.47
-33.70
-37.18
-41.25
-46.18
-52.06
-58.62
-65.13
-70.43
-73.17
-72.27
-67.28
-58.67
-47.66
-35.86
-24.71
-15.00
-6.82
0.27
6.82
13.17
19.27
24.82
29.50
33.11
35.65
37.29
38.22
38.59
38.48
37.99
37.23
36.38
35.64
35.11
34.75
34.40
33.80
32.70
31.02
28.78
26.19
23.46
20.71
17.98
15.27
12.52
9.77
7.10
4.60
2.30
0.10
-2.18
-4.78
-7.84
-11.36
-15.21
-19.17
-23.01
-26.56
-29.74
-32.66
-35.58
-38.94
-43.13
-48.31
-54.08
-59.49
-63.17
-63.75
-60.46
-53.40
-43.52
-32.26
-21.07
-10.94
-2.29
4.94
10.97
15.99
20.05
23.12
25.17
26.27
26.69
26.76
26.81
27.07
27.63
28.37
29.13
29.72
30.04
30.10
29.93
29.52
28.87
27.87
26.45
24.54
22.14
19.33
16.25
13.09
10.08
7.44
5.27
3.56
2.04
0.35
-1.89
-4.90
-8.59
-12.63
-16.53
-19.88
-22.56
-24.75
-26.89
-29.48
-32.93
-37.39
-42.71
-48.46
-53.85
-57.91
-59.60
-58.08
-53.05
-44.88
-34.58
-23.49
-12.85
-3.48
4.35
10.74
15.93
20.06
23.11
25.07
26.02
26.24
26.14
26.10
26.36
26.93
27.66
28.33
28.76
28.88
28.72
28.34
27.79
27.11
26.21
24.88
22.81
19.76
15.75
11.22
6.85
3.44
1.36
0.44
-0.02
-0.94
-2.96
-6.23
-10.43
-15.02
-19.53
-23.71
-27.51
-30.96
-34.15
-37.30
-40.79
-44.99
-50.04
-55.53
-60.54
-63.82
-64.20
-61.00
-54.30
-44.84
-33.80
-22.45
-11.81
-2.45
5.43
12.01
17.48
22.00
25.60
28.26
29.99
30.94
31.34
31.50
31.65
31.92
32.33
32.88
33.40
33.71
33.63
33.07
32.06
30.73
29.17
27.37
25.21
22.55
19.43
16.08
12.88
10.15
7.95
6.04
3.97
1.28
-2.25
-6.54
-11.23
-15.89
-20.14
-23.82
-27.07
-30.23
-33.76
-38.06
-43.40
-49.77
-56.77
-63.64
-69.26
-72.38
-71.96
-67.50
-59.28
-48.31
-36.03
-23.88
-12.91
-3.56
4.23
10.83
16.58
21.63
25.97
29.50
32.15
34.00
35.23
36.08
36.76
37.36
37.87
38.17
38.20
37.92
37.44
36.95
36.52
36.06
35.28
33.80
31.34
27.91
23.83
19.65
15.92
12.91
10.50
8.26
5.64
2.22
-2.10
-7.04
-12.07
-16.63
-20.38
-23.32
-25.81
-28.47
-31.97
-36.80
-43.10
-50.52
-58.14
-64.63
-68.51
-68.54
-64.18
-55.78
-44.53
-32.09
-20.03
-9.42
-0.59
6.65
12.76
18.07
22.69
26.56
29.57
31.76
33.32
34.49
35.47
36.25
36.68
36.55
35.77
34.50
33.12
32.05
31.52
31.41
31.28
30.62
29.07
26.63
23.58
20.32
17.21
14.40
11.85
9.42
6.83
3.82
0.19
-4.05
-8.70
-13.32
-17.54
-21.21
-24.59
-28.27
-32.85
-38.69
-45.68
-53.17
-60.11
-65.33
-67.74
-66.61
-61.80
-53.75
-43.45
-32.15
-21.03
-10.88
-2.02
5.64
12.35
18.35
23.63
28.01
31.23
33.10
33.72
33.47
32.89
32.56
32.77
33.50
34.46
35.24
35.55
35.34
34.70
33.72
32.40
30.59
28.17
25.16
21.86
18.72
16.07
13.99
12.17
10.12
7.32
3.54
-1.08
-6.10
-10.95
-15.19
-18.69
-21.62
-24.43
-27.67
-31.82
-37.13
-43.52
-50.49
-57.15
-62.27
-64.64
-63.33
-58.08
-49.37
-38.34
-26.45
-15.00
-4.85
3.75
10.99
17.23
22.75
27.58
31.57
34.57
36.54
37.66
38.32
38.85
39.42
39.89
39.89
39.17
37.75
36.01
34.50
33.59
33.23
32.99
32.28
30.67
28.08
24.73
20.95
17.00
13.07
9.23
5.59
2.24
-0.81
-3.65
-6.41
-9.20
-12.03
-14.97
-18.16
-21.80
-26.13
-31.24
-36.99
-43.10
-49.13
-54.59
-58.85
-61.17
-60.79
-57.29
-50.79
-42.04
-32.15
-22.24
-13.05
-4.79
2.62
9.37
15.47
20.79
25.08
28.10
29.75
30.13
29.61
28.70
27.98
27.83
28.32
29.22
30.16
30.86
31.25
31.35
31.16
30.48
29.02
26.53
23.09
19.13
15.25
12.01
9.62
7.85
6.21
4.09
1.03
-2.99
-7.68
-12.46
-16.78
-20.36
-23.29
-26.01
-29.11
-33.05
-37.98
-43.56
-49.05
-53.46
-55.73
-55.03
-50.94
-43.66
-33.96
-23.03
-12.12
-2.29
5.89
12.20
16.74
19.84
21.88
23.26
24.36
25.42
26.47
27.34
27.81
27.78
27.39
27.02
27.02
27.54
28.35
28.98
28.90
27.83
25.77
23.03
19.96
16.83
13.82
10.90
7.99
4.98
1.85
-1.37
-4.56
-7.57
-10.28
-12.69
-14.95
-17.34
-20.28
-24.23
-29.51
-36.09
-43.36
-50.15
-54.89
-56.16
-53.16
-46.02
-35.86
-24.34
-13.16
-3.57
3.89
9.29
13.12
15.95
18.22
20.16
21.78
23.02
23.78
24.13
24.26
24.30
24.31
24.16
23.71
22.86
21.70
20.46
19.39
18.60
18.02
17.39
16.39
14.64
11.93
8.24
3.81
-0.85
-5.16
-8.69
-11.36
-13.39
-15.26
-17.41
-20.17
-23.76
-28.34
-33.93
-40.25
-46.57
-51.65
-54.12
-52.88
-47.64
-39.07
-28.48
-17.43
-7.26
1.27
8.00
13.14
17.06
20.13
22.51
24.19
25.10
25.16
24.51
23.47
22.47
21.88
21.81
22.14
22.54
22.67
22.36
21.60
20.52
19.22
17.68
15.77
13.30
10.10
6.18
1.76
-2.82
-7.15
-10.92
-14.02
-16.66
-19.21
-22.17
-26.00
-30.96
-37.06
-43.93
-50.83
-56.63
-60.08
-60.12
-56.23
-48.70
-38.56
-27.34
-16.48
-6.96
0.90
7.32
12.74
17.57
21.95
25.81
29.00
31.38
33.00
33.96
34.46
34.62
34.53
34.20
33.62
32.80
31.81
30.69
29.42
27.95
26.18
24.02
21.43
18.40
14.98
11.23
7.24
3.11
-1.01
-5.00
-8.74
-12.23
-15.54
-18.80
-22.25
-26.17
-30.84
-36.46
-42.96
-49.89
-56.30
-60.99
-62.73
-60.72
-54.84
-45.82
-34.95
-23.64
-13.07
-3.81
4.10
11.00
17.20
22.83
27.75
31.71
34.51
36.21
37.05
37.37
37.42
37.35
37.22
37.05
36.92
36.92
37.00
37.00
36.59
35.47
33.48
30.65
27.25
23.58
19.95
16.52
13.30
10.20
7.08
3.81
0.30
-3.46
-7.39
-11.36
-15.31
-19.28
-23.49
-28.27
-33.85
-40.21
-46.89
-52.99
-57.34
-58.85
-56.81
-51.27
-42.98
-33.18
-23.17
-13.89
-5.65
1.70
8.55
15.15
21.47
27.18
31.87
35.25
37.27
38.08
37.98
37.35
36.51
35.76
35.32
35.27
35.58
36.11
36.63
36.89
36.64
35.64
33.73
30.84
27.15
23.07
19.11
15.75
13.26
11.51
10.07
8.32
5.75
2.12
-2.39
-7.33
-12.12
-16.29
-19.65
-22.34
-24.82
-27.67
-31.45
-36.50
-42.76
-49.63
-56.06
-60.75
-62.47
-60.50
-54.83
-46.23
-35.94
-25.31
-15.37
-6.71
0.61
6.85
12.34
17.27
21.68
25.42
28.34
30.39
31.74
32.65
33.41
34.11
34.63
34.77
34.35
33.44
32.31
31.28
30.56
30.05
29.40
28.23
26.27
23.50
20.19
16.71
13.47
10.70
8.49
6.73
5.16
3.45
1.26
-1.62
-5.16
-9.11
-13.07
-16.67
-19.68
-22.19
-24.49
-27.06
-30.32
-34.57
-39.81
-45.71
-51.52
-56.23
-58.72
-58.10
-54.00
-46.74
-37.30
-26.98
-17.01
-8.17
-0.70
5.59
11.04
15.85
20.00
23.32
25.67
27.06
27.75
28.06
28.32
28.66
29.00
29.17
28.95
28.29
27.25
26.04
24.89
23.92
23.14
22.38
21.46
20.19
18.49
16.39
13.99
11.41
8.72
5.95
3.07
0.06
-3.10
-6.32
-9.46
-12.35
-14.87
-17.02
-18.92
-20.84
-23.11
-26.06
-29.95
-34.84
-40.49
-46.29
-51.31
-54.40
-54.60
-51.41
-45.01
-36.25
-26.43
-16.80
-8.27
-1.22
4.48
9.21
13.28
16.79
19.58
21.47
22.40
22.53
22.20
21.81
21.61
21.66
21.93
22.29
22.72
23.17
23.56
23.72
23.35
22.22
20.20
17.41
14.19
10.96
8.13
5.91
4.27
2.93
1.50
-0.43
-3.09
-6.47
-10.36
-14.39
-18.20
-21.56
-24.43
-27.00
-29.68
-32.90
-36.97
-41.76
-46.65
-50.63
-52.52
-51.45
-47.12
-39.93
-30.84
-21.04
-11.57
-3.12
3.99
9.76
14.29
17.65
19.88
21.06
21.36
21.07
20.57
20.24
20.32
20.88
21.78
22.78
23.59
23.98
23.79
22.96
21.57
19.76
17.72
15.62
13.51
11.35
9.03
6.44
3.50
0.22
-3.37
-7.15
-10.97
-14.73
-18.31
-21.70
-24.98
-28.41
-32.31
-37.00
-42.60
-48.86
-55.01
-59.91
-62.27
-61.06
-55.86
-47.12
-36.01
-24.12
-12.92
-3.39
4.15
9.95
14.52
18.33
21.62
24.41
26.63
28.29
29.52
30.40
31.01
31.29
31.17
30.61
29.74
28.78
27.89
27.09
26.29
25.32
24.04
22.38
20.33
17.87
14.95
11.53
7.66
3.48
-0.78
-4.92
-8.80
-12.41
-15.81
-19.14
-22.60
-26.52
-31.26
-37.17
-44.35
-52.40
-60.38
-66.89
-70.42
-69.85
-64.85
-56.05
-44.80
-32.76
-21.35
-11.38
-3.02
4.03
10.22
15.84
20.99
25.53
29.31
32.25
34.44
36.03
37.21
38.04
38.52
38.58
38.26
37.67
37.01
36.41
35.85
35.12
33.87
31.89
29.10
25.67
21.89
18.07
14.38
10.83
7.36
3.83
0.16
-3.66
-7.51
-11.32
-15.05
-18.84
-22.99
-27.86
-33.68
-40.41
-47.51
-54.06
-58.87
-60.77
-59.03
-53.51
-44.82
-34.15
-22.92
-12.36
-3.17
4.55
11.16
17.12
22.73
27.94
32.47
35.95
38.22
39.31
39.46
39.01
38.28
37.56
37.08
36.97
37.24
37.71
38.07
37.89
36.87
34.83
31.78
27.97
23.72
19.44
15.51
12.18
9.49
7.27
5.13
2.65
-0.46
-4.21
-8.38
-12.65
-16.80
-20.86
-25.07
-29.80
-35.28
-41.45
-47.80
-53.45
-57.31
-58.35
-55.98
-50.18
-41.59
-31.28
-20.34
-9.68
0.14
8.83
16.25
22.23
26.63
29.39
30.65
30.78
30.29
29.72
29.51
29.91
30.93
32.31
33.61
34.38
34.29
33.32
31.67
29.69
27.69
25.78
23.95
22.08
20.07
17.85
15.33
12.45
9.13
5.36
1.26
-2.93
-6.96
-10.70
-14.13
-17.48
-21.04
-25.14
-29.97
-35.56
-41.55
-47.23
-51.60
-53.59
-52.42
-47.89
-40.48
-31.19
-21.23
-11.64
-3.04
4.40
10.76
16.13
20.44
23.55
25.34
25.95
25.73
25.17
24.73
24.66
25.00
25.65
26.41
27.04
27.33
27.08
26.18
24.67
22.71
20.53
18.29
16.00
13.53
10.73
7.55
4.08
0.53
-2.90
-6.10
-9.11
-12.03
-15.00
-18.16
-21.65
-25.62
-30.17
-35.24
-40.43
-45.05
-48.18
-48.94
-46.79
-41.70
-34.17
-25.04
-15.32
-5.85
2.71
9.99
15.80
20.07
22.81
24.14
24.35
23.92
23.43
23.39
24.09
25.47
27.12
28.53
29.25
29.10
28.15
26.61
24.72
22.71
20.74
18.89
17.17
15.44
13.43
10.83
7.47
3.37
-1.20
-5.83
-10.18
-13.97
-17.17
-19.89
-22.45
-25.32
-29.04
-34.08
-40.52
-47.84
-54.93
-60.26
-62.39
-60.36
-54.08
-44.35
-32.66
-20.68
-9.86
-1.03
5.72
10.84
15.00
18.73
22.20
25.34
27.98
30.03
31.52
32.53
33.13
33.31
33.06
32.45
31.64
30.76
29.84
28.82
27.50
25.76
23.61
21.18
18.58
15.85
12.89
9.56
5.79
1.67
-2.61
-6.76
-10.60
-14.08
-17.31
-20.55
-24.08
-28.13
-32.90
-38.36
-44.33
-50.34
-55.68
-59.43
-60.72
-58.89
-53.74
-45.67
-35.59
-24.70
-14.16
-4.76
3.21
9.91
15.71
20.89
25.46
29.23
31.95
33.52
34.10
34.05
33.78
33.54
33.39
33.28
33.07
32.73
32.24
31.56
30.56
29.11
27.08
24.46
21.37
18.00
14.47
10.84
7.09
3.21
-0.77
-4.70
-8.45
-11.92
-15.18
-18.42
-21.96
-26.12
-31.20
-37.31
-44.22
-51.25
-57.31
-61.10
-61.59
-58.30
-51.62
-42.58
-32.52
-22.63
-13.62
-5.65
1.47
8.09
14.40
20.34
25.62
29.84
32.65
33.96
34.00
33.28
32.39
31.78
31.55
31.60
31.71
31.67
31.33
30.62
29.39
27.51
24.93
21.73
18.17
14.53
11.04
7.83
4.90
2.15
-0.56
-3.35
-6.42
-9.95
-14.07
-18.81
-24.11
-29.88
-36.00
-42.29
-48.42
-53.75
-57.46
-58.64
-56.67
-51.45
-43.51
-33.89
-23.80
-14.26
-5.86
1.38
7.73
13.53
18.91
23.73
27.67
30.51
32.22
33.05
33.43
33.73
34.09
34.46
34.63
34.42
33.77
32.71
31.36
29.77
27.96
25.91
23.61
21.07
18.34
15.46
12.40
9.09
5.48
1.57
-2.54
-6.68
-10.67
-14.39
-17.85
-21.19
-24.71
-28.78
-33.71
-39.60
