1629113718.00
64.000000
-0.00
-0.00
-0.00
-0.00
-0.00
-0.00
-0.00
-0.00
-0.00
-0.00
0.00
0.01
0.01
-0.00
-0.03
-0.05
-0.05
0.00
0.13
0.36
0.66
1.01
1.37
1.72
2.06
2.40
2.79
3.24
3.80
4.42
5.06
5.66
6.20
6.68
7.15
7.68
8.31
9.14
10.09
11.04
11.88
12.56
13.14
13.76
14.65
15.96
17.91
20.32
22.90
25.38
27.58
29.57
31.68
34.32
37.81
42.54
48.15
54.10
59.83
64.97
69.58
74.14
79.34
85.71
93.76
103.00
112.62
121.73
129.77
136.75
143.30
150.75
157.77
166.64
177.95
191.79
206.97
220.57
228.25
225.36
208.53
176.87
132.76
80.05
23.07
-34.94
-92.44
-149.16
-205.23
-260.37
-313.74
-363.87
-409.83
-450.91
-486.50
-515.74
-537.23
-549.22
-549.96
-538.37
-514.21
-478.67
-433.88
-382.45
-327.02
-269.84
-212.63
-156.66
-102.95
-52.37
-5.90
35.58
71.43
101.35
125.50
144.38
158.69
169.15
176.37
180.75
182.57
182.07
179.51
175.23
169.65
163.18
156.15
148.81
141.30
133.69
126.02
118.33
110.69
103.16
95.80
88.68
81.83
75.25
68.95
62.95
57.25
51.86
46.78
42.03
37.59
33.45
29.61
26.07
22.81
19.83
17.11
14.67
12.48
10.54
8.83
7.35
6.07
4.97
4.05
3.27
2.62
2.09
1.65
1.30
1.01
0.79
0.61
0.48
0.37
0.29
0.23
0.19
0.16
0.16
0.19
0.21
0.23
0.21
0.16
0.08
-0.01
-0.07
-0.08
-0.04
0.02
0.09
0.11
0.09
0.03
-0.05
-0.09
-0.06
0.04
0.16
0.26
0.28
0.20
0.04
-0.12
-0.19
-0.08
0.20
0.56
0.84
0.89
0.64
0.18
-0.32
-0.58
-0.44
0.12
0.87
1.50
1.65
1.18
0.24
-0.79
-1.41
-1.29
-0.40
0.88
1.97
2.32
1.69
0.31
-1.22
-2.19
-2.19
-1.19
0.33
1.65
2.12
1.21
-1.46
-6.14
-12.65
-19.97
-26.10
-28.63
-25.53
-16.51
-3.38
10.41
21.23
26.83
27.10
23.78
19.19
15.05
11.87
9.33
6.99
4.98
3.90
4.33
6.22
8.71
10.52
10.56
8.42
4.61
0.20
-3.67
-6.33
-7.70
-8.18
-8.39
-8.75
-9.42
-10.25
-11.04
-11.65
-12.12
-12.58
-13.24
-14.24
-15.61
-17.21
-18.80
-20.21
-21.48
-22.85
-24.69
-27.35
-30.98
-35.35
-39.82
-43.72
-46.60
-48.44
-49.78
-51.42
-54.16
-58.40
-63.87
-69.44
-73.37
-73.78
-69.22
-59.14
-44.05
-25.21
-4.83
14.25
29.51
39.47
43.94
43.85
40.87
36.79
33.12
30.86
30.52
32.36
36.36
42.35
49.92
58.49
67.37
75.87
83.38
89.54
94.27
97.69
100.03
101.54
102.47
103.08
103.57
104.09
104.65
105.09
105.04
103.96
101.22
96.26
88.77
78.75
66.57
52.94
38.70
24.70
11.50
-0.59
-11.52
-21.34
-30.10
-37.84
-44.57
-50.43
-55.70
-60.87
-66.56
-73.39
-81.73
-91.47
-101.84
-111.30
-117.76
-118.97
-113.18
-99.71
-79.24
-53.87
-26.53
-0.31
22.27
39.68
51.53
58.28
60.77
59.97
56.77
52.09
46.92
42.43
39.70
39.51
42.08
46.94
53.20
59.68
65.33
69.38
71.41
71.42
69.60
66.30
61.78
56.19
49.53
41.81
33.19
24.07
15.05
6.77
-0.33
-6.21
-11.20
-15.92
-21.00
-26.82
-33.37
-40.24
-46.79
-52.46
-57.08
-60.95
-64.76
-69.30
-75.25
-82.88
-91.98
-101.81
-111.02
-117.81
-120.12
-116.21
-105.23
-87.71
-65.60
-41.77
-19.23
-0.22
14.16
23.93
29.79
32.63
33.15
31.88
29.34
26.17
23.16
21.09
20.47
21.41
23.57
26.41
29.39
32.06
34.14
35.40
35.56
34.37
31.73
27.82
23.07
17.97
12.80
7.53
1.88
-4.46
-11.48
-18.88
-26.11
-32.71
-38.53
-43.82
-49.04
-54.77
-61.48
-69.46
-78.66
-88.47
-97.66
-104.33
-106.37
-101.98
-90.48
-72.64
-50.57
-27.21
-5.47
12.52
25.81
34.45
39.18
40.93
40.45
38.29
34.89
30.84
26.89
23.87
22.45
22.83
24.70
27.28
29.70
31.25
31.59
30.84
29.36
27.58
25.72
23.72
21.28
17.98
13.53
7.93
1.56
-5.00
-11.15
-16.52
-21.08
-25.20
-29.46
-34.55
-41.13
-49.58
-59.83
-71.11
-81.81
-89.67
-92.30
-87.95
-76.13
-57.91
-35.66
-12.40
9.05
26.76
39.85
48.47
53.37
55.49
55.64
54.41
52.20
49.41
46.52
44.05
42.44
41.81
41.95
42.34
42.40
41.75
40.35
38.37
36.07
33.63
31.05
28.16
24.73
20.56
15.55
9.68
3.07
-4.01
-11.23
-18.25
-24.84
-30.88
-36.46
-41.84
-47.41
-53.66
-61.05
-69.83
-79.73
-89.73
-98.02
-102.33
-100.60
-91.71
-76.02
-55.35
-32.52
-10.45
8.58
23.39
33.85
40.50
44.16
45.54
45.25
43.83
41.89
40.02
38.71
38.25
38.60
39.54
40.80
42.19
43.66
45.21
46.74
47.98
48.50
47.75
45.41
41.38
35.97
29.67
23.03
16.30
9.44
2.15
-5.91
-14.80
-24.18
-33.35
-41.60
-48.46
-54.02
-58.87
-64.01
-70.46
-79.00
-89.81
-102.25
-114.71
-124.81
-129.86
-127.58
-116.88
-98.33
-74.13
-47.43
-21.50
1.12
19.11
32.26
41.17
46.73
49.82
51.22
51.63
51.69
52.02
53.06
54.97
57.57
60.45
63.14
65.33
66.98
68.21
69.08
69.44
68.87
66.85
63.01
57.39
50.40
42.79
35.26
28.34
22.21
16.72
11.57
6.40
0.96
-4.81
-10.84
-16.97
-23.08
-29.25
-35.82
-43.28
-52.13
-62.58
-74.28
-86.13
-96.35
-102.71
-103.14
-96.30
-82.14
-62.05
-38.59
-14.77
6.73
24.23
37.11
45.63
50.41
52.08
51.18
48.25
44.05
39.62
36.12
34.49
35.16
37.88
41.88
46.15
49.79
52.20
53.18
52.77
51.16
48.49
44.84
40.18
34.46
27.66
19.86
11.31
2.45
-6.20
-14.13
-21.01
-26.83
-31.93
-36.92
-42.60
-49.69
-58.68
-69.55
-81.53
-93.02
-101.80
-105.45
-102.08
-90.90
-72.70
-49.59
-24.59
-0.72
19.59
35.02
45.32
51.09
53.32
53.05
51.13
48.26
45.04
42.10
40.03
39.32
40.17
42.41
45.51
48.77
51.49
53.15
53.48
52.37
49.82
45.91
40.79
34.64
27.72
20.22
12.30
4.05
-4.42
-12.93
-21.23
-29.07
-36.25
-42.81
-48.99
-55.29
-62.40
-71.01
-81.56
-93.91
-106.96
-118.60
-126.05
-126.63
-118.65
-102.06
-78.65
-51.45
-23.93
0.92
21.23
36.36
46.63
52.88
56.12
57.21
56.92
55.95
55.06
54.94
56.10
58.58
61.95
65.43
68.18
69.71
70.04
69.60
68.92
68.26
67.44
65.88
62.92
58.09
51.43
43.44
34.92
26.73
19.38
12.95
7.04
0.98
-5.78
-13.43
-21.69
-29.98
-37.68
-44.48
-50.53
-56.45
-63.04
-71.15
-81.29
-93.43
-106.72
-119.40
-128.88
-132.28
-127.26
-112.92
-90.34
-62.38
-32.94
-5.74
16.70
33.48
45.19
53.07
58.36
61.83
63.82
64.49
64.25
63.71
63.64
64.55
66.48
69.05
71.63
73.71
75.08
75.89
76.41
76.82
77.02
76.68
75.35
72.75
68.82
63.83
58.26
52.68
47.55
43.06
39.15
35.48
31.59
27.10
21.84
15.90
9.62
3.47
-2.17
-7.13
-11.58
-15.96
-20.89
-26.87
-34.07
-42.21
-50.62
-58.54
-65.44
-71.31
-76.64
-82.26
-89.13
-97.94
-108.88
-121.36
-133.85
-143.96
-148.82
-145.84
-133.59
-112.46
-84.72
-53.94
-23.98
2.04
22.43
36.88
46.14
51.37
53.73
54.17
53.53
52.55
51.96
52.40
54.22
57.36
61.37
65.60
69.36
72.25
74.19
75.41
76.15
76.47
76.17
74.83
72.12
67.91
62.44
56.28
50.06
44.36
39.43
35.22
31.39
27.53
23.33
18.64
13.55
8.34
3.31
-1.33
-5.54
-9.58
-13.82
-18.72
-24.56
-31.31
-38.63
-45.90
-52.57
-58.29
-63.17
-67.73
-72.83
-79.42
-88.22
-99.36
-112.08
-124.62
-134.34
-138.32
-134.21
-121.05
-99.69
-72.72
-43.69
-16.12
7.32
25.29
37.70
45.28
49.09
50.19
49.49
47.79
45.84
44.33
43.86
44.79
47.10
50.45
54.26
57.90
60.89
63.03
64.35
65.04
65.17
64.66
63.22
60.49
56.29
50.78
44.46
38.03
32.17
27.24
23.17
19.59
15.96
11.87
7.18
2.06
-3.05
-7.70
-11.65
-14.98
-18.12
-21.67
-26.11
-31.63
-37.98
-44.59
-50.79
-56.07
-60.32
-63.89
-67.53
-72.16
-78.69
-87.59
-98.57
-110.33
-120.62
-126.59
-125.58
-116.02
-97.95
-73.17
-44.80
-16.45
8.73
28.66
42.59
50.94
54.84
55.61
54.44
52.23
49.71
47.48
46.10
45.98
47.26
49.71
52.86
56.19
59.30
62.08
64.54
66.64
68.13
68.58
67.57
64.84
60.44
54.70
48.15
41.34
34.73
28.60
23.07
18.08
13.55
9.36
5.41
1.59
-2.30
-6.55
-11.45
-17.18
-23.67
-30.57
-37.41
-43.73
-49.31
-54.31
-59.19
-64.63
-71.38
-80.00
-90.51
-102.20
-113.45
-121.93
-125.09
-120.92
-108.59
-88.90
-64.08
-37.21
-11.43
10.81
28.07
39.97
46.82
49.35
48.45
45.07
40.22
35.00
30.46
27.53
26.75
28.24
31.67
36.42
41.75
47.00
51.66
55.41
58.01
59.28
59.07
57.26
53.87
49.00
42.94
36.07
28.80
21.61
14.94
9.18
4.56
1.07
-1.61
-4.01
-6.77
-10.32
-14.83
-20.08
-25.66
-31.13
-36.24
-41.07
-45.94
-51.43
-58.18
-66.69
-77.15
-89.13
-101.43
-112.03
-118.37
-118.01
-109.39
-92.43
-68.76
-41.29
-13.48
11.65
32.11
47.16
57.00
62.32
63.86
62.32
58.43
53.18
47.76
43.50
41.38
41.82
44.55
48.81
53.65
58.23
62.02
64.76
66.34
66.69
65.72
63.39
59.68
54.70
48.59
41.61
34.15
26.77
20.00
14.26
9.57
5.53
1.40
-3.53
-9.56
-16.49
-23.69
-30.46
-36.39
-41.53
-46.35
-51.50
-57.63
-65.26
-74.58
-85.41
-96.96
-107.75
-115.68
-118.47
-114.25
-102.25
-83.21
-59.22
-33.26
-8.34
13.16
29.86
41.33
47.84
49.93
48.34
43.95
37.95
31.76
26.84
24.29
24.52
27.22
31.59
36.68
41.71
46.15
49.64
51.91
52.67
51.71
49.01
44.76
39.31
33.12
26.63
20.13
13.82
7.70
1.72
-4.29
-10.42
-16.65
-22.81
-28.70
-34.14
-39.20
-44.22
-49.81
-56.62
-65.18
-75.48
-86.74
-97.24
-104.62
-106.35
-100.55
-86.69
-65.93
-40.82
-14.67
9.45
29.34
44.05
53.62
58.66
59.93
58.21
54.27
49.05
43.65
39.22
36.66
36.43
38.42
42.02
46.42
50.80
54.56
57.32
58.80
58.79
56.99
53.24
47.52
40.17
31.84
23.34
15.35
8.14
1.52
-4.98
-11.87
-19.33
-27.14
-34.75
-41.65
-47.70
-53.30
-59.32
-66.80
-76.47
-88.45
-102.02
-115.60
-126.96
-133.52
-132.98
-123.94
-106.49
-82.41
-54.79
-27.18
-2.58
17.31
32.25
42.97
50.48
55.55
58.49
59.47
58.85
57.24
55.52
54.52
54.82
56.54
59.46
63.09
66.78
70.02
72.43
73.88
74.43
74.02
72.45
69.38
64.51
57.82
49.81
41.32
33.26
26.30
20.62
15.84
11.34
6.32
0.20
-7.24
-15.77
-24.75
-33.34
-40.83
-46.93
-51.91
-56.58
-62.05
-69.33
-79.24
-91.92
-106.59
-121.42
-133.59
-139.90
-137.62
-125.49
-104.28
-76.64
-46.35
-17.22
7.91
27.58
41.65
50.81
56.12
58.60
59.16
58.62
57.77
57.30
57.75
59.44
62.32
66.03
70.00
73.72
76.84
79.33
81.29
82.84
83.90
84.15
83.20
80.77
76.85
71.78
66.12
60.40
55.05
50.26
46.04
42.32
38.96
35.84
32.74
29.47
25.84
21.75
17.22
12.37
7.41
2.54
-2.11
-6.57
-11.01
-15.77
-21.23
-27.63
-34.97
-42.95
-51.05
-58.71
-65.61
-71.71
-77.34
-83.14
-89.90
-98.35
-108.92
-121.33
-134.30
-145.51
-151.90
-150.54
-139.61
-119.21
-91.55
-60.39
-29.91
-3.48
17.02
31.27
40.03
44.49
45.82
45.05
43.17
41.28
40.43
41.44
44.56
49.46
55.35
61.29
66.48
70.43
73.09
74.63
75.33
75.38
74.77
73.32
70.78
67.05
62.31
57.03
51.72
46.80
42.34
38.14
33.83
29.19
24.20
19.11
14.26
9.93
6.16
2.70
-0.98
-5.45
-11.08
-17.86
-25.30
-32.65
-39.18
-44.59
-49.14
-53.66
-59.18
-66.53
-76.09
-87.49
-99.52
-110.27
-117.34
-118.39
-111.76
-97.09
-75.57
-49.73
-22.81
2.11
22.77
38.02
47.71
52.35
52.78
50.04
45.32
39.95
35.26
32.36
31.89
33.89
37.87
42.92
48.07
52.48
55.67
57.52
58.11
57.64
56.12
53.42
49.30
43.63
36.61
28.80
21.00
13.92
7.92
2.82
-1.95
-7.06
-12.94
-19.62
-26.77
-33.83
-40.40
-46.33
-51.84
-57.45
-63.83
-71.61
-81.25
-92.80
-105.67
-118.36
-128.60
-133.69
-131.28
-120.22
-101.09
-76.16
-48.73
-22.14
1.07
19.61
33.29
42.60
48.23
50.84
51.08
49.68
47.57
45.72
44.98
45.84
48.36
52.18
56.70
61.29
65.38
68.60
70.69
71.55
71.10
69.34
66.35
62.27
57.32
51.69
45.54
38.97
32.14
25.30
18.74
12.68
7.19
2.07
-3.13
-8.87
-15.48
-22.94
-30.94
-38.92
-46.36
-53.00
-58.99
-64.91
-71.63
-80.02
-90.71
-103.69
-118.12
-132.20
-143.40
-148.88
-146.32
-134.64
-114.53
-88.34
-59.56
-31.75
-7.63
11.50
25.73
36.04
43.60
49.34
53.79
57.25
60.00
62.44
64.97
67.92
71.32
74.95
78.44
81.46
83.82
85.54
86.71
87.43
87.68
87.30
86.03
83.60
79.84
74.89
69.12
63.12
57.42
52.36
47.94
43.82
39.59
34.87
29.53
23.71
17.77
12.11
7.03
2.53
-1.69
-6.16
-11.46
-17.97
-25.69
-34.22
-42.91
-51.14
-58.59
-65.33
-71.82
-78.79
-87.05
-97.19
-109.32
-122.72
-135.65
-145.52
-149.46
-145.22
-132.01
-110.88
-84.50
-56.38
-29.82
-7.07
10.92
24.37
34.16
41.31
46.61
50.61
53.68
56.21
58.60
61.25
64.37
67.87
71.44
74.64
77.17
78.98
80.28
81.38
82.43
83.34
83.75
83.23
81.45
78.35
74.18
69.39
64.46
59.74
55.40
51.39
47.61
44.01
40.60
37.45
34.59
31.89
29.04
25.66
21.48
16.44
10.79
5.02
-0.40
-5.16
-9.34
-13.39
-17.92
-23.43
-30.00
-37.30
-44.73
-51.66
-57.78
-63.15
-68.29
-73.90
-80.76
-89.36
-99.68
-110.89
-121.32
-128.70
-130.67
-125.58
-113.03
-94.19
-71.39
-47.53
-25.20
-6.16
8.89
20.11
28.14
33.78
37.75
40.59
42.76
44.62
46.47
48.51
50.81
53.29
55.79
58.12
60.17
61.96
63.52
64.91
66.07
66.81
66.88
66.06
64.23
61.51
58.14
54.44
50.72
47.16
43.87
40.79
37.88
35.05
32.27
29.57
26.95
24.38
21.74
18.88
15.67
12.03
8.01
3.74
-0.63
-4.96
-9.13
-13.10
-16.91
-20.68
-24.64
-29.02
-33.92
-39.23
-44.68
-49.95
-54.93
-59.85
-65.25
-71.71
-79.50
-88.22
-96.72
-103.24
-105.90
-103.27
-94.81
-81.09
-63.71
-44.80
-26.53
-10.51
2.36
11.92
18.44
22.38
24.13
24.08
22.72
20.67
18.73
17.72
18.18
20.29
23.75
28.01
32.39
36.36
39.63
42.07
43.64
44.26
43.87
42.40
39.97
36.92
33.74
30.87
28.58
26.84
25.33
23.59
21.21
18.03
14.16
10.00
6.05
2.71
0.16
-1.76
-3.50
-5.63
-8.63
-12.68
-17.67
-23.19
-28.77
-34.01
-38.77
-43.12
-47.42
-52.10
-57.60
-64.01
-70.92
-77.29
-81.59
-82.21
-77.95
-68.52
-54.70
-38.09
-20.74
-4.48
9.34
20.01
27.31
31.37
32.50
31.18
28.12
24.28
20.69
18.32
17.76
19.07
21.78
25.17
28.49
31.28
33.33
34.64
35.24
35.05
33.94
31.89
29.09
25.88
22.66
19.67
16.89
14.11
11.05
7.60
3.80
-0.15
-4.00
-7.51
-10.59
-13.29
-15.78
-18.41
-21.49
-25.26
-29.70
-34.54
-39.40
-43.95
-48.16
-52.28
-56.87
-62.47
-69.43
-77.53
-85.96
-93.27
-97.70
-97.61
-91.98
-80.85
-65.27
-47.15
-28.62
-11.61
2.60
13.45
20.98
25.61
27.95
28.66
28.35
27.58
26.83
26.51
26.90
28.12
30.14
32.75
35.65
38.54
41.13
43.20
44.56
45.09
44.69
43.35
41.19
38.42
35.35
32.24
29.25
26.35
23.42
20.21
16.55
12.39
7.89
3.36
-0.75
-4.15
-6.81
-9.05
-11.42
-14.53
-18.77
-24.17
-30.30
-36.50
-42.09
-46.66
-50.28
-53.57
-57.53
-63.09
-70.75
-80.17
-90.02
-98.27
-102.67
-101.38
-93.60
-79.77
-61.46
-40.98
-20.77
-2.83
11.57
22.03
28.75
32.29
33.33
32.60
30.87
29.01
27.92
28.23
30.13
33.28
36.95
40.42
43.21
45.31
47.02
48.65
50.26
51.64
52.36
52.03
50.47
47.82
44.37
40.52
36.61
32.81
29.13
25.45
21.61
17.54
13.34
9.22
5.43
2.07
-0.94
-3.83
-6.93
-10.52
-14.71
-19.44
-24.55
-29.73
-34.68
-39.26
-43.58
-48.07
-53.37
-60.10
-68.53
-78.31
-88.25
-96.54
-101.08
-100.06
-92.56
-78.83
-60.34
-39.43
-18.74
-0.49
13.93
24.16
30.55
33.91
35.04
34.62
33.24
31.47
29.96
29.32
30.00
32.14
35.51
39.66
44.05
48.25
51.87
54.63
56.25
56.53
55.42
53.10
49.90
46.24
42.38
38.40
34.16
29.53
24.53
19.42
14.61
10.41
6.85
3.64
0.27
-3.68
-8.38
-13.66
-19.17
-24.53
-29.53
-34.23
-38.86
-43.80
-49.45
-56.21
-64.39
-73.95
-84.32
-94.19
-101.66
-104.58
-101.31
-91.18
-74.93
-54.48
-32.44
-11.37
6.83
21.16
31.45
38.04
41.47
42.35
41.29
39.13
36.79
35.19
35.01
36.49
39.38
43.18
47.27
51.19
54.63
57.45
59.59
60.96
61.47
61.04
59.57
57.05
53.52
49.18
44.27
39.07
33.82
28.63
23.52
18.56
13.88
9.62
5.87
2.49
-0.89
-4.74
-9.45
-15.16
-21.64
-28.44
-35.01
-40.95
-46.16
-50.94
-55.95
-62.06
-70.04
-80.13
-91.73
-103.26
-112.40
-116.65
-114.09
-103.94
-86.88
-64.90
-40.78
-17.37
3.01
19.00
30.26
37.23
40.76
41.83
41.34
40.12
38.95
38.46
39.14
41.14
44.26
48.04
51.95
55.60
58.75
61.36
63.41
64.86
65.54
65.22
63.67
60.82
56.80
51.90
46.53
41.07
35.76
30.68
25.79
21.12
16.79
12.98
9.71
6.77
3.65
-0.24
-5.30
-11.55
-18.61
-25.85
-32.66
-38.67
-43.86
-48.62
-53.61
-59.63
-67.42
-77.30
-88.90
-100.94
-111.33
-117.55
-117.41
-109.63
-94.35
-73.15
-48.68
-23.97
-1.72
16.28
29.31
37.57
41.89
43.25
42.61
40.85
38.82
37.31
36.96
38.15
40.82
44.53
48.68
52.76
56.44
59.68
62.45
64.66
66.04
66.19
64.77
61.68
57.11
51.55
45.63
39.90
34.70
30.08
25.90
21.94
18.05
14.19
10.34
6.50
2.53
-1.79
-6.68
-12.28
-18.55
-25.25
-32.02
-38.44
-44.18
-49.24
-53.97
-59.09
-65.45
-73.82
-84.42
-96.79
-109.59
-120.73
-127.70
-128.17
-120.67
-105.14
-83.12
-57.40
-31.30
-7.74
11.37
25.41
34.75
40.31
43.06
43.86
43.52
42.77
42.41
43.10
45.22
48.71
53.11
57.74
61.95
65.39
68.04
70.16
71.97
73.50
74.40
74.12
72.13
68.26
62.83
56.61
50.51
45.21
40.92
37.37
34.01
30.30
25.97
21.11
16.04
11.10
6.45
1.96
-2.72
-7.94
-13.87
-20.37
-27.06
-33.50
-39.46
-45.02
-50.62
-56.88
-64.49
-73.94
-85.39
-98.42
-111.87
-123.71
-131.42
-132.46
-125.21
-109.61
-87.35
-61.48
-35.49
-12.28
6.43
20.30
29.92
36.27
40.20
42.30
42.97
42.66
41.99
41.72
42.48
44.59
47.88
51.88
55.96
59.71
62.98
65.81
68.23
70.05
70.84
70.09
67.44
62.85
56.65
49.44
41.94
34.90
28.83
23.94
20.05
16.60
12.80
7.96
1.80
-5.51
-13.35
-21.00
-27.94
-34.02
-39.56
-45.20
-51.73
-59.88
-70.03
-81.89
-94.24
-104.96
-111.38
-111.14
-102.92
-87.05
-65.43
-41.02
-16.91
4.38
21.40
33.73
41.70
46.07
47.71
47.46
46.15
44.54
43.30
42.88
43.58
45.36
47.97
51.06
54.22
57.08
59.34
60.79
61.22
60.50
58.56
55.40
51.11
45.82
39.69
32.89
25.67
18.28
11.01
4.07
-2.47
-8.61
-14.46
-20.13
-25.82
-31.77
-38.42
-46.25
-55.53
-66.07
-76.92
-86.39
-92.39
-92.98
-87.03
-74.60
-57.05
-36.65
-15.95
2.82
18.27
29.85
37.68
42.24
44.05
43.64
41.60
38.67
35.69
33.52
32.79
33.76
36.28
39.89
43.97
47.87
50.97
52.82
53.09
51.69
48.71
44.44
39.28
33.59
27.70
21.77
15.89
10.04
4.22
-1.59
-7.33
-12.91
-18.25
-23.36
-28.39
-33.65
-39.60
-46.72
-55.36
-65.40
-76.11
-86.02
-93.14
-95.42
-91.41
-80.74
-64.37
-44.34
-23.25
-3.52
13.11
25.79
34.48
39.58
41.69
41.43
39.43
36.44
33.29
30.90
29.99
30.91
33.55
37.37
41.62
45.62
48.88
51.08
51.99
51.34
48.89
44.57
38.66
31.78
24.75
18.21
12.42
7.15
1.89
-3.86
-10.28
-17.24
-24.33
-31.16
-37.48
-43.28
-48.84
-54.70
-61.57
-70.09
-80.56
-92.48
-104.38
-113.91
-118.52
-116.19
-106.17
-89.36
-67.96
-44.81
-22.57
-3.07
12.84
25.09
34.02
40.10
43.81
45.70
46.46
46.88
47.71
49.44
52.20
55.74
59.63
63.37
66.64
69.28
71.28
72.61
73.22
72.97
71.63
69.09
65.32
60.57
55.26
49.87
44.81
40.19
35.85
31.40
26.54
21.17
15.51
9.97
4.85
0.24
-4.14
-8.79
-14.20
-20.60
-27.83
-35.46
-42.96
-49.97
-56.48
-62.88
-69.83
-78.01
-87.85
-99.24
-111.34
-122.48
-130.42
-132.85
-128.05
-115.50
-96.26
-72.74
-48.05
-25.14
-5.96
8.81
19.66
27.62
33.75
38.76
42.92
46.33
49.12
51.56
54.02
56.80
60.05
63.63
67.24
70.57
73.34
75.44
76.87
77.64
77.75
77.13
75.69
73.47
70.56
67.21
63.61
59.91
56.11
52.14
47.94
43.54
39.03
34.60
30.43
26.66
23.29
20.23
17.25
14.06
10.39
6.14
1.37
-3.72
-8.93
-14.22
-19.77
-25.77
-32.36
-39.41
-46.53
-53.25
-59.24
-64.51
-69.45
-74.71
-81.06
-89.11
-99.11
-110.66
-122.55
-132.83
-139.11
-139.11
-131.43
-116.07
-94.60
-69.80
-44.91
-22.74
-4.96
8.11
17.29
23.89
29.06
33.45
37.17
40.15
42.41
44.30
46.36
49.03
52.44
56.37
60.41
64.13
67.30
69.86
71.74
72.86
73.03
72.04
69.80
66.35
61.96
57.08
52.18
47.72
43.93
40.80
38.09
35.41
32.44
29.01
25.14
21.01
16.84
12.81
9.01
5.40
1.89
-1.70
-5.53
-9.74
-14.40
-19.48
-24.88
-30.43
-35.96
-41.35
-46.52
-51.58
-56.82
-62.73
-69.80
-78.31
-87.92
-97.53
-105.31
-109.15
-107.28
-98.92
-84.55
-65.81
-44.99
-24.35
-5.66
10.00
22.14
30.62
35.51
37.03
35.70
32.44
28.49
25.18
23.59
24.22
26.91
30.96
35.51
39.80
43.43
46.32
48.56
50.14
50.87
50.41
48.39
44.67
39.39
33.06
26.41
20.13
14.71
10.23
6.36
2.61
-1.54
-6.34
-11.77
-17.50
-23.19
-28.59
-33.67
-38.70
-44.09
-50.35
-57.89
-66.86
-76.91
-87.05
-95.69
-100.87
-100.77
-94.30
-81.49
-63.60
-42.78
-21.52
-2.03
14.19
26.39
34.45
38.69
39.65
38.08
34.93
31.28
28.18
26.49
26.63
28.52
31.66
35.34
38.90
41.94
44.32
46.09
47.23
47.52
46.58
44.03
39.73
33.91
27.11
20.00
13.06
6.51
0.27
-5.90
-12.26
-18.86
-25.58
-32.16
-38.33
-43.87
-48.82
-53.56
-58.75
-65.22
-73.67
-84.29
-96.44
-108.52
-118.21
-122.93
-120.63
-110.41
-93.02
-70.58
-46.08
-22.56
-2.27
13.69
25.24
33.03
37.89
40.58
41.67
41.71
41.32
41.23
42.08
44.21
47.49
51.40
55.25
58.40
60.55
61.74
62.25
62.39
62.28
61.77
60.48
57.98
53.95
48.40
41.71
34.50
27.50
21.23
15.86
11.15
6.62
1.73
-3.89
-10.31
-17.31
-24.51
-31.50
-37.98
-43.92
-49.58
-55.48
-62.33
-70.76
-81.19
-93.40
-106.35
-118.16
-126.36
-128.49
-122.84
-109.09
-88.48
-63.57
-37.53
-13.26
7.20
22.99
34.26
41.78
46.53
49.39
51.09
52.21
53.30
54.79
56.98
59.85
63.13
66.37
69.19
71.49
73.45
75.36
77.40
79.46
81.11
81.78
80.97
78.38
74.04
68.29
61.78
55.22
49.28
44.33
40.33
36.89
33.48
29.65
25.25
20.35
15.17
9.99
5.03
0.37
-3.99
-8.27
-12.85
-18.16
-24.46
-31.68
-39.35
-46.86
-53.74
-59.86
-65.56
-71.49
-78.41
-86.99
-97.48
-109.41
-121.51
-131.59
-137.00
-135.38
-125.49
-107.70
-84.05
-57.66
-31.78
-8.94
9.41
22.97
32.12
37.54
39.95
39.99
38.35
35.89
33.60
32.47
33.23
36.10
40.72
46.25
51.70
56.29
59.73
62.08
63.69
64.78
65.30
64.89
63.11
59.69
54.66
48.49
41.81
35.30
29.43
24.26
19.54
14.82
9.67
3.91
-2.32
-8.65
-14.64
-20.02
-24.80
-29.29
-33.98
-39.47
-46.32
-54.93
-65.34
-77.01
-88.65
-98.31
-103.69
-102.83
-94.70
-79.65
-59.33
-36.29
-13.30
7.33
24.11
36.48
44.51
48.67
49.52
47.74
44.16
39.78
35.75
33.07
32.32
33.53
36.25
39.74
43.35
46.68
49.57
51.95
53.63
54.30
53.54
50.97
46.49
40.27
32.86
24.96
17.31
10.38
4.31
-1.16
-6.48
-12.09
-18.18
-24.68
-31.32
-37.80
-43.93
-49.74
-55.50
-61.70
-68.95
-77.77
-88.30
-99.88
-110.92
-119.13
-122.03
-117.69
-105.46
-86.26
-62.33
-36.67
-12.25
8.66
24.88
36.27
43.40
47.14
48.32
47.62
45.70
43.34
41.46
40.92
42.25
45.42
49.81
54.54
58.76
61.95
63.93
64.85
64.91
64.15
62.50
59.73
55.67
50.34
44.01
37.21
30.55
24.37
18.70
13.24
7.54
1.24
-5.71
-13.07
-20.44
-27.42
-33.71
-39.25
-44.19
-48.99
-54.34
-61.04
-69.78
-80.87
-93.92
-107.79
-120.58
-129.87
-133.23
-128.79
-115.89
-95.50
-70.08
-42.99
-17.50
4.01
20.57
32.42
40.49
45.75
48.94
50.50
50.81
50.32
49.67
49.51
50.35
52.39
55.52
59.40
63.55
67.52
70.92
73.45
74.89
75.03
73.67
70.77
66.49
61.19
55.36
49.42
43.58
37.87
32.18
26.46
20.75
15.13
9.64
4.19
-1.35
-7.17
-13.29
-19.64
-26.06
-32.44
-38.71
-44.82
-50.81
-56.89
-63.50
-71.22
-80.69
-92.24
-105.46
-118.96
-130.46
-137.14
-136.46
-126.98
-108.93
-84.34
-56.47
-28.93
-4.62
14.81
29.11
38.91
45.17
48.72
50.11
49.86
48.68
47.44
47.08
48.26
51.14
55.37
60.36
65.43
70.11
74.17
77.56
80.23
82.04
82.66
81.72
79.01
74.64
69.05
62.93
57.01
51.78
47.44
43.80
40.52
37.14
33.22
28.48
22.90
16.79
10.72
5.30
0.88
-2.66
-5.94
-9.81
-14.96
-21.66
-29.69
-38.46
-47.27
-55.53
-62.95
-69.54
-75.72
-82.20
-89.87
-99.43
-110.90
-123.26
-134.41
-141.55
-141.90
-133.62
-116.50
-92.09
-63.35
-33.82
-6.76
15.56
32.05
42.70
48.14
49.36
47.52
43.93
39.97
36.99
36.01
37.51
41.32
46.72
52.76
58.57
63.53
67.33
69.95
71.52
72.15
71.93
70.88
68.88
65.83
61.72
56.72
51.14
45.29
39.43
33.66
28.01
22.56
17.51
13.07
9.33
6.10
2.96
-0.63
-5.05
-10.44
-16.61
-23.17
-29.71
-35.91
-41.71
-47.29
-53.12
-59.83
-67.93
-77.46
-87.73
-97.23
-103.82
-105.27
-99.91
-87.24
-68.12
-44.63
-19.58
4.23
24.53
39.94
49.98
54.81
55.05
51.54
45.40
37.93
30.64
24.92
21.85
21.90
24.88
30.04
36.30
42.52
47.77
51.43
53.22
53.12
51.27
47.87
43.13
37.29
30.65
23.52
16.17
8.68
1.02
-6.87
-14.96
-22.95
-30.41
-36.90
-42.27
-46.86
-51.43
-56.97
-64.37
-74.04
-85.57
-97.61
-108.00
-114.15
-113.72
-105.36
-89.21
-66.94
-41.37
-15.73
7.19
25.51
38.45
46.18
49.41
49.09
46.24
41.83
36.81
32.15
28.69
27.10
27.63
30.17
34.19
38.99
43.78
47.91
50.84
52.18
51.65
49.12
44.71
38.74
31.76
24.27
16.63
8.89
0.92
-7.42
-16.07
-24.76
-33.07
-40.62
-47.28
-53.28
-59.11
-65.46
-73.07
-82.58
-94.24
-107.59
-121.27
-132.89
-139.54
-138.48
-128.15
-108.79
-82.64
-53.24
-24.47
0.58
20.28
34.52
44.19
50.52
54.53
56.84
57.85
57.96
57.75
57.86
58.83
60.86
63.79
67.23
70.77
74.11
77.14
79.76
81.81
82.95
82.75
80.83
77.07
71.69
65.24
58.39
51.74
45.59
39.86
34.28
28.54
22.54
16.39
10.31
4.43
-1.34
-7.29
-13.76
-20.93
-28.69
-36.70
-44.50
-51.78
-58.46
-64.81
-71.46
-79.20
-88.90
-101.05
-115.38
-130.53
-144.03
-152.65
-153.35
-144.22
-125.25
-98.42
-67.23
-35.68
-7.22
16.02
33.35
45.25
52.82
57.23
59.51
60.46
60.80
61.16
62.10
63.99
66.92
70.62
74.68
78.66
82.23
85.30
87.89
90.02
91.61
92.40
92.01
90.13
86.67
81.85
76.17
70.29
64.73
59.77
55.33
51.16
46.97
42.65
38.26
33.96
29.90
26.07
22.34
18.47
14.24
9.53
4.37
-1.08
-6.55
-11.84
-16.94
-22.12
-27.81
-34.41
-42.01
-50.28
-58.55
-66.11
-72.56
-78.03
-83.22
-89.10
-96.70
-106.63
-118.85
-132.34
-145.08
-154.24
-156.78
-150.29
-133.88
-108.67
-77.62
-44.75
-14.03
11.65
30.91
43.86
51.46
54.97
55.56
54.21
51.81
49.32
47.71
47.79
49.96
54.10
59.54
65.37
70.73
75.10
78.33
80.57
82.03
82.73
82.48
80.90
77.67
72.67
66.19
58.85
51.40
44.55
38.68
33.72
29.27
24.77
19.84
14.50
9.09
4.07
-0.25
-4.00
-7.66
-11.90
-17.25
-23.94
-31.73
-40.09
-48.38
-56.02
-62.73
-68.65
-74.34
-80.69
-88.71
-99.12
-111.90
-125.97
-139.11
-148.35
-150.60
-143.70
-127.12
-102.30
-72.31
-40.96
-11.79
12.73
31.52
44.65
52.84
57.04
58.10
56.87
54.23
51.15
48.65
47.59
48.47
51.32
55.81
61.25
66.92
72.19
76.61
79.92
81.95
82.58
81.68
79.14
74.97
69.39
62.79
55.73
48.80
42.46
36.98
32.27
28.00
23.64
18.78
13.23
7.21
1.21
-4.22
-8.82
-12.79
-16.74
-21.42
-27.33
-34.54
-42.64
-50.86
-58.56
-65.34
-71.27
-76.85
-82.89
-90.33
-99.90
-111.80
-125.33
-138.71
-149.25
-153.93
-150.19
-136.76
-114.26
-85.07
-52.75
-21.08
6.82
29.01
44.89
54.83
59.73
60.71
58.94
55.60
51.94
49.12
48.04
49.14
52.30
56.95
62.30
67.56
72.17
75.83
78.55
80.39
81.43
81.57
80.55
78.02
73.80
67.99
61.08
53.81
46.91
40.86
35.74
31.26
26.97
22.43
17.40
11.95
6.33
0.90
-4.04
-8.43
-12.53
-16.81
-21.79
-27.75
-34.58
-41.82
-48.87
-55.30
-61.08
-66.64
-72.72
-80.15
-89.53
-100.96
-113.73
-126.30
-136.31
-141.04
-138.14
-126.31
-105.85
-78.75
-48.15
-17.59
9.84
32.10
48.30
58.48
63.30
63.63
60.55
55.30
49.29
43.95
40.48
39.58
41.25
45.00
50.03
55.60
61.16
66.39
71.02
74.72
77.09
77.66
76.09
72.28
66.50
59.31
51.54
44.01
37.36
31.78
26.97
22.34
17.27
11.48
5.10
-1.38
-7.44
-12.82
-17.63
-22.33
-27.46
-33.41
-40.22
-47.61
-55.09
-62.17
-68.64
-74.69
-80.90
-88.18
-97.40
-109.01
-122.61
-136.73
-148.85
-155.95
-155.20
-144.86
-124.87
-97.04
-64.59
-31.40
-0.94
24.35
43.37
56.18
63.47
66.23
65.45
62.13
57.40
52.51
48.69
46.89
47.60
50.73
55.73
61.86
68.32
74.44
79.65
83.54
85.81
86.21
84.61
81.03
75.64
68.85
61.30
53.75
46.87
40.95
35.85
31.03
25.84
19.88
13.18
6.20
-0.38
-6.05
-10.67
-14.59
-18.54
-23.31
-29.46
-37.10
-45.88
-55.11
-64.03
-72.09
-79.20
-85.80
-92.83
-101.42
-112.45
-126.00
-140.95
-154.80
-164.18
-165.67
-156.90
-137.36
-108.72
-74.40
-38.58
-5.18
22.99
44.49
59.16
67.68
71.11
70.64
67.46
62.80
57.95
54.15
52.41
53.28
56.69
62.03
68.33
74.61
80.13
84.52
87.76
89.91
90.98
90.75
88.87
84.99
79.06
71.46
62.98
54.56
47.01
40.64
35.23
30.19
24.91
19.04
12.70
6.33
0.50
-4.46
-8.58
-12.34
-16.52
-21.84
-28.76
-37.20
-46.56
-55.95
-64.49
-71.70
-77.72
-83.26
-89.44
-97.48
-108.25
-121.97
-137.81
-153.70
-166.47
-172.48
-168.49
-152.86
-126.22
-91.54
-53.35
-16.48
15.20
39.46
55.83
65.09
68.61
67.87
64.33
59.32
54.22
50.27
48.44
49.21
52.50
57.71
63.98
70.43
76.46
81.71
86.11
89.56
91.79
92.34
90.64
86.39
79.74
71.34
62.12
53.04
44.71
37.28
30.56
24.25
18.10
12.04
6.13
0.43
-5.14
-10.82
-16.95
-23.85
-31.64
-40.10
-48.73
-56.89
-64.11
-70.33
-76.08
-82.39
-90.49
-101.42
-115.48
-131.86
-148.47
-162.12
-169.17
-166.48
-152.43
-127.52
-94.42
-57.26
-20.55
11.94
37.87
56.43
68.01
73.61
74.43
71.71
66.73
60.90
55.72
52.52
52.14
54.76
59.79
66.20
72.86
79.00
84.26
88.63
92.12
94.42
94.97
93.08
88.42
81.32
72.73
63.86
55.71
48.66
42.42
36.36
29.95
23.10
16.19
9.79
4.30
-0.42
-4.95
-10.14
-16.64
-24.67
-33.85
-43.41
-52.49
-60.52
-67.43
-73.70
-80.28
-88.32
-98.82
-112.29
-128.22
-144.88
-159.25
-167.61
-166.50
-153.85
-129.82
-96.96
-59.59
-22.56
10.00
35.57
53.43
64.29
69.60
70.93
69.59
66.67
63.17
60.12
58.52
59.13
62.16
67.17
73.19
79.12
84.15
87.96
90.68
92.54
93.56
93.38
91.47
87.50
81.58
74.33
66.59
59.10
52.21
45.87
39.81
33.77
27.70
21.71
15.95
10.45
4.98
-0.80
-7.19
-14.32
-21.98
-29.78
-37.26
-44.21
-50.73
-57.31
-64.68
-73.59
-84.53
-97.44
-111.50
-124.93
-135.14
-139.28
-134.97
-121.16
-98.68
-70.12
-39.12
-9.36
16.33
36.47
50.71
59.41
63.17
62.64
58.66
52.40
45.45
39.54
36.13
36.00
39.06
44.47
51.06
57.67
63.49
68.10
71.31
72.97
72.86
70.74
66.47
60.21
52.46
44.03
35.77
28.28
21.71
15.74
9.78
3.29
-3.93
-11.61
-19.21
-26.15
-32.18
-37.50
-42.69
-48.59
-56.05
-65.72
-77.65
-91.10
-104.29
-114.59
-119.10
-115.51
-102.98
-82.53
-56.80
-29.28
-3.23
19.02
36.39
48.72
56.32
59.70
59.40
56.25
51.41
46.36
42.51
40.89
41.77
44.74
48.88
53.17
56.85
59.54
61.19
61.89
61.65
60.30
57.55
53.13
47.02
39.55
31.41
23.37
16.07
9.69
3.93
-1.83
-8.22
-15.56
-23.63
-31.82
-39.37
-45.75
-50.98
-55.67
-60.82
-67.49
-76.53
-88.24
-102.10
-116.72
-129.82
-138.57
-140.23
-132.99
-116.64
-92.88
-64.88
-36.42
-10.78
10.10
25.74
36.83
44.53
49.91
53.73
56.46
58.41
59.91
61.28
62.71
64.25
65.80
67.20
68.36
69.31
70.23
71.29
72.58
73.91
74.87
74.83
73.23
69.76
64.56
58.20
51.49
45.18
39.67
34.94
30.58
26.10
21.17
15.82
10.37
5.23
0.65
-3.51
-7.71
-12.62
-18.71
-26.02
-34.16
-42.45
-50.25
-57.25
-63.55
-69.62
-76.17
-83.90
-93.30
-104.48
-116.81
-128.77
-137.99
-141.79
-137.92
-125.47
-105.24
-79.73
-52.33
-26.32
-4.10
13.30
26.06
35.05
41.34
45.81
49.09
51.60
53.62
55.42
57.19
59.00
60.85
62.69
64.46
66.20
67.91
69.62
71.21
72.47
73.13
72.93
71.70
69.35
65.95
61.66
56.76
51.60
46.59
42.01
38.03
34.62
31.57
28.59
25.41
21.86
17.88
13.55
9.06
4.63
0.45
-3.38
-6.94
-10.54
-14.61
-19.55
-25.56
-32.54
-40.03
-47.45
-54.25
-60.13
-65.17
-69.90
-75.12
-81.65
-90.09
-100.43
-111.83
-122.54
-130.23
-132.49
-127.54
-114.80
-95.17
-70.86
-44.85
-20.14
0.93
17.11
28.27
35.17
39.00
40.94
41.95
42.67
43.48
44.64
46.28
48.40
50.86
53.40
55.75
57.73
59.38
60.84
62.25
63.62
64.76
65.31
64.90
63.32
60.55
56.86
52.69
48.50
44.67
41.33
38.37
35.56
32.65
29.48
26.12
22.76
19.66
16.97
14.64
12.36
9.78
6.60
2.74
-1.60
-6.11
-10.44
-14.48
-18.35
-22.32
-26.68
-31.55
-36.78
-42.07
-47.08
-51.65
-55.84
-59.92
-64.32
-69.54
-76.01
-83.83
-92.60
-101.18
-107.73
-110.15
-106.64
-96.41
-80.06
-59.46
-37.20
-15.88
2.57
17.13
27.54
34.05
37.13
37.32
35.30
31.95
28.28
25.32
23.86
24.28
26.53
30.19
34.64
39.22
43.41
46.81
49.13
50.21
49.98
48.49
45.91
42.50
38.58
34.41
30.20
26.06
22.03
18.06
14.10
10.13
6.22
2.54
-0.81
-3.87
-6.90
-10.31
-14.45
-19.42
-25.02
-30.83
-36.38
-41.39
-45.84
-50.01
-54.41
-59.72
-66.47
-74.86
-84.34
-93.54
-100.38
-102.61
-98.52
-87.56
-70.53
-49.39
-26.76
-5.23
13.17
27.15
36.30
40.90
41.67
39.62
35.82
31.31
27.10
24.02
22.69
23.38
25.95
29.89
34.50
39.04
42.95
45.88
47.73
48.47
48.16
46.89
44.68
41.56
37.55
32.71
27.23
21.37
15.51
10.00
5.04
0.63
-3.40
-7.36
-11.56
-16.20
-21.39
-27.07
-33.03
-38.93
-44.51
-49.59
-54.26
-58.91
-64.09
-70.45
-78.49
-88.36
-99.66
-111.24
-121.22
-127.24
-127.10
-119.32
-103.83
-82.10
-56.83
-31.17
-7.92
11.07
25.17
34.65
40.33
43.17
44.02
43.67
42.78
42.04
42.03
43.10
45.31
48.41
51.92
55.31
58.27
60.76
62.91
64.92
66.80
68.25
68.74
67.72
64.87
60.33
54.65
48.58
42.82
37.73
33.29
29.25
25.20
20.87
16.19
11.33
6.54
2.09
-1.91
-5.61
-9.41
-13.81
-19.20
-25.71
-33.06
-40.70
-47.99
-54.51
-60.24
-65.65
-71.56
-78.93
-88.40
-100.01
-112.91
-125.29
-134.58
-138.08
-133.69
-120.58
-99.61
-73.20
-44.71
-17.56
5.60
23.41
35.79
43.57
47.95
50.10
50.91
51.07
51.06
51.35
52.28
54.05
56.63
59.80
63.22
66.53
69.50
72.09
74.38
76.47
78.32
79.67
80.04
78.91
75.92
71.09
64.82
57.84
50.99
44.98
40.19
36.61
33.88
31.42
28.57
24.88
20.22
14.84
9.24
3.94
-0.84
-5.22
-9.69
-14.79
-20.86
-27.83
-35.27
-42.60
-49.38
-55.49
-61.18
-67.01
-73.67
-81.80
-91.70
-103.10
-114.92
-125.25
-131.61
-131.60
-123.61
-107.45
-84.54
-57.61
-29.94
-4.55
16.45
32.06
42.33
47.93
49.87
49.23
47.06
44.33
41.93
40.58
40.75
42.57
45.80
49.97
54.47
58.81
62.61
65.68
67.92
69.24
69.46
68.38
65.90
62.10
57.31
51.98
46.61
41.50
36.69
32.04
27.34
22.49
17.59
12.82
8.35
4.14
-0.03
-4.51
-9.54
-15.16
-21.15
-27.18
-32.96
-38.33
-43.40
-48.51
-54.18
-61.07
-69.76
-80.43
-92.43
-104.11
-112.93
-116.09
-111.44
-98.29
-77.79
-52.64
-26.22
-1.69
18.71
33.93
43.96
49.43
51.23
50.31
47.58
43.90
40.11
37.01
35.32
35.51
37.65
41.37
45.96
50.61
54.71
57.93
60.23
61.61
61.97
61.02
58.51
54.41
49.03
42.95
36.74
30.79
25.14
19.67
14.26
8.92
3.77
-1.09
-5.73
-10.38
-15.44
-21.16
-27.57
-34.36
-41.09
-47.32
-52.90
-58.01
-63.20
-69.24
-76.87
-86.62
-98.48
-111.64
-124.35
-134.08
-138.02
-133.85
-120.64
-99.22
-72.12
-42.86
-15.02
8.75
27.07
39.80
47.63
51.60
52.74
52.04
50.36
48.59
47.44
47.46
48.83
51.45
54.89
58.69
62.44
65.85
68.78
71.08
72.61
73.13
72.45
70.48
67.31
63.14
58.29
53.02
47.51
41.85
36.07
30.19
24.30
18.56
13.13
8.13
3.47
-1.07
-5.90
-11.40
-17.75
-24.86
-32.36
-39.65
-46.29
-52.16
-57.58
-63.32
-70.37
-79.54
-91.03
-104.10
-116.93
-126.94
-131.38
-128.08
-116.17
-96.44
-71.17
-43.52
-16.74
6.62
25.02
38.07
46.17
50.22
51.26
50.38
48.56
46.70
45.56
45.64
47.16
50.02
53.80
57.92
61.89
65.32
68.09
70.23
71.79
72.67
72.64
71.41
68.79
64.84
59.89
54.39
48.74
43.12
37.53
31.92
26.23
20.56
15.14
10.16
5.72
1.71
-2.24
-6.58
-11.72
-17.78
-24.60
-31.78
-38.82
-45.44
-51.65
-57.76
-64.36
-72.04
-81.26
-92.07
-103.77
-114.86
-123.10
-125.98
-121.52
-108.97
-89.22
-64.64
-38.35
-13.37
8.07
24.82
36.65
43.91
47.23
47.37
45.16
41.58
37.72
34.62
33.15
33.83
36.70
41.30
46.84
52.38
57.08
60.47
62.45
63.16
62.78
61.37
58.85
55.05
49.92
43.68
36.82
29.93
23.57
18.03
13.26
8.87
4.34
-0.81
-6.82
-13.56
-20.60
-27.38
-33.42
-38.55
-42.99
-47.33
-52.39
-58.97
-67.66
-78.53
-90.93
-103.39
-113.75
-119.50
-118.44
-109.31
-92.40
-69.46
-43.40
-17.48
5.52
23.84
36.94
45.19
49.44
50.62
49.55
46.97
43.67
40.52
38.45
38.13
39.84
43.39
48.13
53.21
57.80
61.25
63.27
63.91
63.36
61.92
59.83
57.15
53.77
49.56
44.44
38.47
31.88
24.98
18.14
11.74
6.03
1.15
-2.97
-6.69
-10.51
-14.96
-20.41
-26.89
-34.19
-41.91
-49.61
-57.01
-64.08
-71.10
-78.63
-87.32
-97.57
-109.11
-120.66
-130.00
-134.50
-131.88
-120.98
-102.26
-77.69
-50.17
-22.81
1.78
21.87
36.72
46.41
51.57
53.09
52.02
49.49
46.65
44.58
44.18
45.88
49.58
54.62
60.04
64.95
68.85
71.62
73.45
74.53
74.83
74.19
72.35
69.26
65.12
60.33
55.32
50.36
45.51
40.58
35.34
29.64
23.54
17.30
11.30
5.85
1.06
-3.27
-7.64
-12.55
-18.39
-25.19
-32.62
-40.15
-47.28
-53.80
-59.92
-66.27
-73.66
-82.83
-93.96
-106.46
-118.78
-128.63
-133.44
-131.07
-120.42
-101.82
-77.09
-49.08
-21.05
4.04
24.18
38.49
47.27
51.54
52.65
51.84
50.07
48.07
46.47
45.87
46.80
49.53
53.84
59.07
64.34
68.81
72.07
74.09
75.16
75.57
75.41
74.48
72.39
68.89
64.05
58.34
52.45
46.98
42.16
37.80
33.48
28.76
23.49
17.85
12.25
7.15
2.82
-0.78
-3.94
-7.25
-11.34
-16.71
-23.48
-31.33
-39.55
-47.30
-54.02
-59.58
-64.40
-69.28
-75.14
-82.89
-93.01
-105.34
-118.68
-130.88
-138.98
-140.11
-132.34
-115.47
-91.22
-62.74
-33.69
-7.36
14.10
29.83
40.07
45.77
48.09
48.15
46.93
45.20
43.70
43.05
43.79
46.05
49.63
53.96
58.37
62.34
65.68
68.47
70.87
72.86
74.20
74.48
73.33
70.59
66.43
61.23
55.51
49.80
44.50
39.79
35.64
31.78
27.88
23.62
18.94
13.95
8.94
4.18
-0.15
-4.13
-7.95
-11.93
-16.37
-21.49
-27.35
-33.85
-40.72
-47.59
-54.11
-60.10
-65.71
-71.47
-78.16
-86.57
-97.06
-109.16
-121.35
-131.17
-135.81
-132.92
-121.43
-101.97
-76.76
-48.99
-21.90
1.96
21.13
35.14
44.19
48.83
49.82
48.10
44.85
41.35
38.79
38.00
39.32
42.53
47.08
52.26
57.45
62.18
66.18
69.30
71.46
72.54
72.41
70.93
68.05
63.89
58.80
53.29
47.95
43.24
39.33
36.02
32.86
29.37
25.25
20.53
15.58
10.87
6.80
3.43
0.52
-2.39
-5.78
-10.04
-15.32
-21.53
-28.35
-35.31
-41.86
-47.62
-52.54
-57.09
-62.09
-68.50
-77.02
-87.67
-99.56
-110.90
-119.33
-122.41
-118.31
-106.35
-87.28
-63.21
-37.10
-12.05
9.46
25.99
37.14
43.37
45.54
44.62
41.54
37.23
32.65
28.76
26.38
26.06
27.95
31.70
36.64
41.94
46.84
50.87
53.85
55.82
56.82
56.82
55.65
53.13
49.20
44.05
38.13
31.98
26.15
20.96
16.52
12.72
9.32
6.00
2.43
-1.65
-6.33
-11.51
-16.96
-22.38
-27.55
-32.40
-37.06
-41.81
-47.08
-53.35
-61.01
-70.15
-80.24
-90.01
-97.49
-100.45
-97.07
-86.62
-69.74
-48.43
-25.40
-3.32
15.74
30.60
40.92
46.87
48.81
47.29
42.99
36.92
30.45
25.04
21.96
21.86
24.61
29.31
34.78
39.87
43.89
46.65
48.28
48.89
48.46
46.74
43.44
38.45
32.03
24.77
17.38
10.51
4.54
-0.60
-5.30
-10.14
-15.56
-21.79
-28.67
-35.82
-42.74
-49.08
-54.73
-59.91
-65.10
-70.92
-78.01
-86.87
-97.63
-109.74
-121.91
-132.00
-137.50
-136.08
-126.43
-108.75
-84.86
-57.72
-30.62
-6.35
13.42
28.16
38.22
44.30
47.14
47.42
45.84
43.28
40.75
39.23
39.39
41.47
45.19
49.93
54.97
59.72
63.76
66.85
68.91
69.84
69.52
67.76
64.44
59.51
53.17
45.86
38.22
30.88
24.27
18.49
13.26
8.05
2.33
-4.21
-11.50
-19.15
-26.55
-33.25
-39.06
-44.25
-49.46
-55.56
-63.38
-73.45
-85.70
-99.19
-112.09
-121.82
-125.66
-121.49
-108.59
-87.99
-62.29
-34.91
-9.08
12.90
29.98
42.15
50.04
54.41
56.09
55.91
54.77
53.59
53.18
53.99
56.04
59.03
62.46
65.90
69.15
72.15
74.98
77.61
79.85
81.30
81.48
80.01
76.75
71.93
66.04
59.80
53.85
48.65
44.34
40.70
37.29
33.54
29.04
23.65
17.65
11.59
6.00
1.19
-3.07
-7.41
-12.56
-18.98
-26.61
-34.88
-42.96
-50.18
-56.36
-61.86
-67.46
-74.12
-82.64
-93.42
-106.14
-119.58
-131.63
-139.50
-140.45
-132.68
-115.96
-91.99
-63.95
-35.56
-10.07
10.55
25.73
36.01
42.35
45.72
46.88
46.48
45.23
43.98
43.56
44.58
47.25
51.29
56.20
61.40
66.41
70.92
74.75
77.73
79.69
80.43
79.75
77.63
74.16
69.66
64.61
59.54
54.85
50.73
47.12
43.80
40.55
37.21
33.73
30.14
26.50
22.81
19.09
15.34
11.57
7.78
3.86
-0.36
-5.14
-10.68
-17.07
-24.17
-31.67
-39.11
-46.02
-52.10
-57.35
-62.16
-67.22
-73.42
-81.49
-91.71
-103.64
-115.95
-126.45
-132.53
-131.77
-122.73
-105.44
-81.59
-54.08
-26.35
-1.40
18.70
33.09
41.92
46.00
46.44
44.49
41.39
38.38
36.49
36.43
38.42
42.19
47.09
52.32
57.15
61.14
64.17
66.45
68.29
69.83
70.92
71.09
69.81
66.77
62.15
56.50
50.60
45.10
40.29
36.19
32.63
29.51
26.74
24.25
21.85
19.20
15.95
11.92
7.18
2.06
-3.04
-7.80
-12.15
-16.30
-20.62
-25.47
-31.09
-37.41
-44.12
-50.81
-57.13
-62.99
-68.63
-74.49
-81.20
-89.34
-99.12
-110.13
-121.07
-129.84
-133.87
-130.95
-119.97
-101.42
-77.39
-50.89
-25.01
-2.20
16.16
29.69
38.65
43.64
45.36
44.62
42.35
39.61
37.44
36.72
37.94
41.06
45.60
50.80
55.84
60.15
63.46
65.75
67.16
67.76
67.53
66.43
64.40
61.50
57.85
53.68
49.20
44.64
40.21
35.98
32.01
28.20
24.38
20.45
16.34
12.18
8.12
4.32
0.82
-2.51
-5.99
-10.02
-14.95
-20.95
-27.88
-35.27
-42.45
-48.84
-54.16
-58.62
-62.87
-67.75
-74.06
-82.27
-92.34
-103.60
-114.65
-123.46
-127.67
-125.18
-114.86
-97.08
-73.73
-47.83
-22.58
-0.60
16.64
28.84
36.52
40.55
41.88
41.34
39.72
37.78
36.34
36.04
37.27
40.01
43.86
48.20
52.37
55.96
58.84
61.09
62.87
64.16
64.73
64.16
62.11
58.47
53.52
47.88
42.30
37.45
33.68
30.91
28.64
26.22
23.07
18.96
14.09
9.01
4.31
0.31
-3.06
-6.22
-9.70
-13.88
-18.85
-24.38
-30.14
-35.83
-41.31
-46.63
-52.03
-57.92
-64.76
-72.89
-82.33
-92.56
-102.43
-110.22
-113.94
-111.85
-102.98
-87.55
-67.04
-43.87
-20.81
-0.19
16.53
28.83
36.84
40.92
41.47
38.95
34.12
28.17
22.58
18.81
17.81
19.79
24.30
30.42
37.11
43.49
48.88
52.85
55.19
55.86
54.93
52.58
49.02
44.55
39.51
34.29
29.26
24.70
20.72
17.22
13.91
10.42
6.41
1.77
-3.42
-8.75
-13.76
-18.08
-21.69
-24.86
-28.14
-32.05
-37.01
-43.28
-50.98
-60.08
-70.24
-80.54
-89.38
-94.76
-94.77
-88.22
-75.19
-57.05
-36.03
-14.64
4.93
21.21
33.44
41.47
45.53
46.02
43.54
38.81
32.76
26.50
21.15
17.70
16.76
18.42
22.29
27.62
33.52
39.12
43.63
46.40
46.94
45.04
40.85
34.87
27.89
20.70
13.88
7.69
2.03
-3.44
-9.07
-15.11
-21.54
-28.15
-34.66
-40.82
-46.67
-52.52
-59.00
-66.72
-76.08
-86.88
-98.08
-107.87
-113.96
-114.20
-107.24
-93.07
-73.07
-49.74
-25.93
-4.17
13.89
27.58
36.92
42.35
44.45
43.89
41.46
38.11
34.82
32.49
31.73
32.75
35.40
39.23
43.61
47.85
51.29
53.40
53.82
52.37
49.09
44.15
37.87
30.73
23.22
15.72
8.33
0.88
-7.03
-15.74
-25.34
-35.60
-45.96
-55.85
-64.90
-73.05
-80.70
-88.65
-97.85
-109.03
-122.25
-136.42
-149.30
-157.80
-158.88
-150.55
-132.48
-106.21
-74.69
-41.45
-9.73
18.09
40.82
58.29
71.10
80.22
86.65
91.15
94.24
96.32
97.76
98.92
100.10
101.37
102.63
103.62
104.12
104.10
103.71
103.13
102.34
101.16
99.25
96.28
92.10
86.77
80.47
73.48
65.99
58.16
50.11
41.93
33.87
26.27
19.54
13.90
9.15
4.71
-0.29
-6.62
-14.52
-23.66
-33.24
-42.47
-50.86
-58.43
-65.63
-73.20
-81.98
-92.63
-105.38
-119.60
-133.52
-144.38
-149.01
-144.85
-131.02
-108.68
-80.82
-51.30
-23.73
-0.52
17.37
30.21
39.02
44.99
49.19
52.44
55.31
58.21
61.37
64.86
68.55
72.22
75.60
78.53
81.01
83.15
85.12
87.04
88.81
90.20
90.84
90.37
88.54
85.34
81.00
75.99
70.82
65.96
61.62
57.76
54.14
50.50
46.68
42.71
38.74
34.99
31.58
28.49
25.50
22.24
18.33
13.53
7.87
1.69
-4.50
-10.21
-15.27
-19.89
-24.63
-30.08
-36.60
-44.17
-52.39
-60.65
-68.44
-75.45
-81.72
-87.63
-93.84
-101.16
-110.31
-121.59
-134.42
-147.16
-157.21
-161.56
-157.69
-144.43
-122.47
-94.37
-63.82
-34.64
-9.79
9.26
22.53
31.05
36.25
39.41
41.48
43.17
45.02
47.55
51.07
55.57
60.68
65.78
70.28
73.85
76.53
78.64
80.49
82.26
83.86
84.88
84.81
83.24
80.06
75.53
70.22
64.86
59.99
55.82
52.18
48.74
45.20
41.50
37.82
34.40
31.31
28.35
25.15
21.37
16.88
11.85
6.66
1.73
-2.72
-6.78
-10.81
-15.31
-20.71
-27.16
-34.49
-42.25
-49.85
-56.81
-62.94
-68.36
-73.54
-79.19
-86.01
-94.52
-104.71
-115.82
-126.21
-133.54
-135.33
-129.66
-115.96
-95.25
-69.94
-43.20
-18.01
3.45
20.06
31.66
38.68
41.80
41.82
39.67
36.42
33.28
31.37
31.51
33.92
38.25
43.70
49.34
54.47
58.74
62.15
64.84
66.86
68.03
68.04
66.53
63.39
58.82
53.34
47.61
42.20
37.39
33.13
29.10
24.86
20.11
14.85
9.40
4.23
-0.29
-4.16
-7.71
-11.55
-16.26
-22.13
-29.01
-36.39
-43.56
-49.96
-55.39
-60.19
-65.17
-71.31
-79.42
-89.81
-101.91
-114.29
-124.75
-130.72
-129.89
-120.91
-103.93
-80.66
-54.02
-27.36
-3.59
15.49
29.28
38.10
42.76
44.18
43.26
40.95
38.27
36.23
35.61
36.76
39.57
43.54
48.07
52.59
56.75
60.36
63.40
65.91
67.84
69.00
69.00
67.44
64.04
58.88
52.52
45.79
39.52
34.22
30.01
26.51
23.21
19.64
15.50
10.86
5.96
1.16
-3.29
-7.35
-11.25
-15.50
-20.62
-26.94
-34.34
-42.29
-50.02
-56.88
-62.70
-67.84
-73.15
-79.61
-88.01
-98.62
-110.98
-123.78
-134.95
-141.95
-142.34
-134.46
-118.11
-94.69
-67.01
-38.50
-12.32
9.36
25.59
36.47
42.73
45.38
45.38
43.70
41.28
39.06
37.85
38.21
40.33
43.97
48.66
53.80
58.90
63.56
67.58
70.83
73.15
74.37
74.23
72.50
69.08
64.15
58.19
51.93
46.13
41.25
37.35
34.01
30.61
26.58
21.70
16.11
10.27
4.70
-0.21
-4.31
-7.78
-11.08
-14.78
-19.42
-25.29
-32.33
-40.05
-47.83
-55.09
-61.61
-67.63
-73.79
-80.92
-89.81
-100.75
-113.30
-125.97
-136.41
-141.75
-139.46
-128.22
-108.42
-82.17
-52.77
-23.79
1.78
22.13
36.66
45.78
50.43
51.72
50.70
48.33
45.52
43.22
42.27
43.22
46.16
50.65
55.91
61.11
65.67
69.40
72.37
74.68
76.24
76.81
76.07
73.83
70.12
65.23
59.57
53.63
47.81
42.40
37.42
32.76
28.14
23.38
18.43
13.43
8.64
4.26
0.25
-3.71
-8.07
-13.26
-19.46
-26.50
-33.92
-41.13
-47.65
-53.38
-58.66
-64.20
-70.89
-79.47
-90.23
-102.65
-115.37
-126.20
-132.63
-132.31
-123.81
-107.15
-83.92
-56.92
-29.46
-4.52
15.89
30.90
40.65
45.76
47.07
45.41
41.68
36.89
32.25
28.93
27.82
29.29
33.12
38.65
44.96
51.24
56.84
61.44
64.87
67.05
67.89
67.25
65.02
61.18
55.88
49.46
42.41
35.33
28.71
22.97
18.29
14.58
11.46
8.35
4.62
-0.15
-6.02
-12.62
-19.38
-25.71
-31.33
-36.35
-41.24
-46.68
-53.38
-61.82
-72.09
-83.58
-94.88
-103.84
-108.00
-105.25
-94.59
-76.53
-53.05
-27.09
-1.75
20.40
37.80
49.82
56.58
58.58
56.59
51.53
44.56
37.14
30.81
26.92
26.25
28.83
33.89
40.20
46.47
51.68
55.36
57.44
58.11
57.51
55.65
52.36
47.48
41.02
33.39
25.28
17.49
10.62
4.79
-0.35
-5.53
-11.40
-18.24
-25.85
-33.62
-40.91
-47.34
-53.05
-58.56
-64.69
-72.27
-81.88
-93.64
-106.90
-120.19
-131.17
-137.10
-135.52
-125.03
-105.90
-80.09
-50.82
-21.68
4.32
25.23
40.35
50.03
55.16
56.88
56.31
54.47
52.28
50.47
49.70
50.38
52.66
56.37
61.02
65.94
70.45
74.05
76.51
77.82
78.06
77.24
75.28
72.07
67.63
62.21
56.15
49.81
43.39
36.97
30.54
24.21
18.14
12.58
7.59
3.02
-1.54
-6.60
-12.64
-19.86
-28.11
-36.90
-45.56
-53.46
-60.29
-66.25
-72.13
-79.07
-88.22
-100.19
-114.52
-129.47
-142.10
-148.95
-147.08
-135.01
-113.39
-84.91
-53.48
-23.16
2.91
23.10
37.21
45.99
50.61
52.28
52.04
50.91
49.88
49.75
51.09
54.07
58.41
63.53
68.69
73.25
76.87
79.55
81.51
83.04
84.20
84.76
84.35
82.62
79.49
75.16
70.07
64.61
59.10
53.70
48.49
43.61
39.21
35.40
32.17
29.31
26.51
23.46
19.80
15.37
10.19
4.50
-1.31
-6.81
-11.88
-16.73
-21.84
-27.72
-34.58
-42.22
-50.20
-58.04
-65.48
-72.56
-79.62
-87.16
-95.79
-106.04
-118.06
-131.31
-144.19
-154.12
-158.13
-153.72
-139.84
-117.31
-88.69
-57.57
-27.57
-1.47
19.13
33.87
43.26
48.32
50.17
49.88
48.46
46.87
46.04
46.70
49.23
53.49
58.92
64.63
69.86
74.19
77.57
80.23
82.35
83.83
84.27
83.16
80.13
75.20
68.87
61.98
55.41
49.74
45.01
40.79
36.43
31.46
25.87
20.12
14.85
10.51
7.06
4.00
0.58
-3.84
-9.50
-16.18
-23.42
-30.63
-37.37
-43.50
-49.17
-54.85
-61.19
-68.91
-78.48
-89.81
-101.94
-113.04
-120.62
-122.16
-115.91
-101.51
-80.25
-54.72
-28.14
-3.40
17.47
33.50
44.50
50.70
52.53
50.62
45.95
39.88
34.01
29.82
28.34
29.87
34.03
39.92
46.42
52.54
57.60
61.33
63.81
65.17
65.43
64.36
61.58
56.84
50.22
42.30
33.93
25.99
19.03
13.13
7.95
2.96
-2.32
-8.09
-14.24
-20.44
-26.30
-31.62
-36.55
-41.54
-47.26
-54.37
-63.29
-73.95
-85.70
-97.23
-106.68
-111.92
-110.97
-102.61
-86.85
-65.12
-39.99
-14.56
8.41
27.05
40.60
49.20
53.47
54.11
51.76
47.18
41.33
35.45
30.84
28.57
29.08
32.16
37.01
42.62
48.04
52.65
56.09
58.17
58.72
57.46
54.15
48.69
41.34
32.74
23.77
15.31
7.93
1.71
-3.78
-9.16
-15.10
-21.91
-29.47
-37.32
-44.87
-51.70
-57.73
-63.39
-69.46
-76.86
-86.30
-97.92
-111.11
-124.29
-135.04
-140.51
-138.16
-126.56
-106.05
-78.86
-48.56
-19.05
6.52
26.36
40.17
48.67
53.04
54.37
53.60
51.58
49.23
47.52
47.29
48.96
52.43
57.10
62.09
66.51
69.82
71.86
72.79
72.95
72.56
71.63
69.91
67.06
62.81
57.11
50.11
42.11
33.58
25.05
17.00
9.84
3.73
-1.54
-6.48
-11.73
-17.76
-24.69
-32.27
-40.01
-47.45
-54.35
-60.85
-67.38
-74.66
-83.47
-94.36
-107.33
-121.44
-134.69
-144.34
-147.52
-142.08
-127.29
-104.27
-75.67
-45.04
-15.88
9.12
28.57
42.34
51.16
56.11
58.29
58.61
57.89
56.96
56.68
57.77
60.56
64.87
70.09
75.43
80.19
83.94
86.55
88.10
88.73
88.54
87.54
85.66
82.79
78.84
73.85
68.02
61.75
55.39
49.22
43.39
37.94
32.82
27.99
23.36
18.78
14.09
9.20
4.16
-0.88
-5.83
-10.73
-15.89
-21.72
-28.48
-36.18
-44.46
-52.79
-60.61
-67.67
-73.99
-79.95
-86.22
-93.63
-102.99
-114.76
-128.66
-143.33
-156.35
-164.58
-164.92
-155.28
-135.40
-107.07
-73.91
-40.26
-10.06
14.17
31.65
43.10
49.97
53.73
55.43
55.74
55.21
54.45
54.22
55.16
57.59
61.39
66.07
71.01
75.71
79.88
83.41
86.23
88.21
89.18
88.83
86.88
83.19
77.85
71.27
64.12
57.13
50.91
45.78
41.70
38.34
35.20
31.73
27.51
22.42
16.64
10.59
4.82
-0.26
-4.57
-8.38
-12.23
-16.73
-22.28
-29.04
-36.84
-45.27
-53.75
-61.76
-68.93
-75.31
-81.40
-88.06
-96.21
-106.39
-118.29
-130.59
-140.97
-146.57
-144.77
-133.95
-114.13
-87.13
-56.11
-24.80
3.45
26.38
42.95
53.17
57.65
57.29
53.22
46.79
39.63
33.48
29.80
29.46
32.54
38.36
45.84
53.73
60.94
66.75
70.81
73.06
73.68
72.85
70.71
67.31
62.68
56.89
50.16
42.74
34.92
27.02
19.39
12.41
6.41
1.49
-2.62
-6.55
-11.03
-16.60
-23.29
-30.69
-38.13
-45.06
-51.34
-57.26
-63.45
-70.62
-79.40
-90.07
-102.30
-114.96
-125.99
-132.85
-132.94
-124.47
-107.10
-82.18
-52.48
-21.51
7.41
31.72
50.02
62.01
68.14
69.32
66.66
61.39
54.84
48.36
43.21
40.33
40.19
42.74
47.43
53.46
59.96
66.09
71.17
74.66
76.23
75.73
73.22
68.92
63.23
56.59
49.48
42.30
35.28
28.42
21.59
14.62
7.51
0.47
-6.14
-12.07
-17.34
-22.34
-27.67
-33.84
-41.01
-48.95
-57.15
-65.06
-72.38
-79.19
-85.97
-93.50
-102.68
-114.16
-127.90
-142.84
-156.60
-165.93
-167.42
-158.57
-138.73
-109.44
-74.11
-37.09
-2.56
26.34
47.99
62.22
69.86
72.24
70.88
67.26
62.76
58.70
56.17
55.91
58.07
62.22
67.53
73.06
78.13
82.41
85.95
88.92
91.29
92.79
92.91
91.14
87.17
81.11
73.44
64.98
56.55
48.85
42.15
36.29
30.82
25.17
18.99
12.33
5.59
-0.67
-6.10
-10.71
-15.08
-20.01
-26.24
-34.08
-43.28
-53.12
-62.73
-71.41
-78.91
-85.59
-92.27
-100.10
-110.16
-123.05
-138.46
-154.77
-169.10
-177.78
-177.23
-165.15
-141.36
-108.11
-69.49
-30.36
4.97
33.61
54.49
67.97
75.27
77.81
76.97
73.96
69.95
66.07
63.36
62.60
64.05
67.49
72.26
77.51
82.49
86.78
90.26
93.00
95.02
96.13
95.94
93.94
89.83
83.64
75.88
67.35
58.96
51.38
44.88
39.29
34.13
28.86
23.08
16.78
10.25
3.93
-1.76
-6.72
-11.24
-15.92
-21.42
-28.22
-36.33
-45.36
-54.59
-63.29
-71.00
-77.70
-83.84
-90.34
-98.25
-108.56
-121.70
-137.17
-153.15
-166.64
-173.97
-171.78
-158.07
-133.10
-99.37
-61.08
-22.90
11.14
38.53
58.37
71.06
77.64
79.34
77.32
72.70
66.71
60.68
55.95
53.53
53.89
56.86
61.73
67.64
73.74
79.50
84.59
88.78
91.77
93.13
92.33
89.05
83.35
75.81
67.43
59.27
52.07
46.00
40.63
35.24
29.16
22.21
14.73
7.44
1.01
-4.18
-8.35
-12.15
-16.43
-21.77
-28.36
-35.90
-43.82
-51.51
-58.64
-65.19
-71.53
-78.27
-86.16
-95.79
-107.28
-119.99
-132.26
-141.47
-144.65
-139.22
-123.95
-99.42
-68.05
-33.44
0.49
30.48
54.38
71.31
81.37
85.20
83.69
77.96
69.29
59.30
49.74
42.32
38.27
38.11
41.50
47.52
54.93
62.59
69.56
75.14
78.78
80.10
78.92
75.31
69.64
62.47
54.41
46.00
37.58
29.32
21.27
13.43
5.85
-1.37
-8.12
-14.36
-20.22
-26.00
-32.10
-38.86
-46.36
-54.36
-62.38
-69.97
-76.91
-83.44
-90.23
-98.24
-108.40
-121.21
-136.22
-151.80
-165.11
-172.59
-170.94
-158.12
-134.18
-101.34
-63.49
-25.09
9.87
38.67
60.02
73.88
80.99
82.47
79.63
73.85
66.63
59.49
53.81
50.65
50.48
53.19
58.12
64.34
70.93
77.13
82.41
86.38
88.66
88.95
87.04
82.98
77.12
70.00
62.23
54.26
46.27
38.24
30.05
21.68
13.33
5.37
-1.88
-8.23
-13.81
-19.11
-24.73
-31.19
-38.73
-47.16
-55.99
-64.66
-72.73
-80.13
-87.27
-94.91
-104.07
-115.66
-129.93
-146.00
-161.62
-173.27
-177.05
-169.83
-150.41
-120.10
-82.42
-42.14
-3.91
28.77
54.05
71.57
81.94
86.21
85.56
81.32
74.94
68.08
62.30
58.89
58.48
60.98
65.70
71.60
77.68
83.24
87.92
91.64
94.37
95.91
95.91
93.94
89.73
83.37
75.40
66.71
58.18
50.44
43.55
37.06
30.31
22.83
14.64
6.32
-1.27
-7.48
-12.25
-16.24
-20.54
-26.20
-33.79
-43.13
-53.41
-63.57
-72.78
-80.73
-87.79
-94.91
-103.27
-114.00
-127.64
-143.78
-160.69
-175.40
-184.14
-183.27
-170.46
-145.57
-110.90
-70.66
-29.80
7.27
37.61
59.96
74.44
81.93
83.67
80.98
75.38
68.57
62.28
58.01
56.66
58.41
62.71
68.61
75.05
81.24
86.72
91.33
95.04
97.77
99.21
98.87
96.29
91.28
84.12
75.56
66.62
58.21
50.78
44.29
38.28
32.19
25.71
18.86
12.05
5.77
0.33
-4.28
-8.57
-13.25
-19.04
-26.32
-35.00
-44.44
-53.73
-62.14
-69.34
-75.65
-81.94
-89.36
-98.95
-111.26
-125.97
-141.63
-155.71
-164.90
-165.86
-156.14
-135.08
-104.21
-66.97
-27.90
8.55
39.01
61.74
76.50
84.10
85.80
82.94
76.76
68.55
59.75
51.96
46.67
44.87
46.87
52.17
59.71
68.18
76.36
83.26
88.23
90.88
91.05
88.81
84.37
78.06
70.29
61.50
52.16
42.75
33.70
25.27
17.56
10.47
3.84
-2.51
-8.71
-14.95
-21.48
-28.61
-36.55
-45.26
-54.32
-63.14
-71.21
-78.45
-85.36
-92.94
-102.38
-114.62
-129.87
-147.16
-164.13
-177.28
-182.63
-176.88
-158.47
-128.35
-89.85
-47.84
-7.36
27.60
54.83
73.82
85.24
90.31
90.30
86.47
80.19
73.01
66.59
62.45
61.50
63.82
68.72
75.01
81.55
87.54
92.73
97.15
100.74
103.18
103.81
101.95
97.23
89.88
80.69
70.82
61.37
53.10
46.22
40.44
35.10
29.45
23.00
15.65
7.80
0.08
-6.92
-13.05
-18.68
-24.57
-31.48
-39.78
-49.29
-59.38
-69.24
-78.30
-86.42
-94.01
-101.90
-111.22
-123.01
-137.83
-155.19
-173.24
-188.71
-197.50
-195.72
-181.01
-153.44
-115.73
-72.58
-29.38
9.23
40.27
62.79
77.37
85.40
88.40
87.72
84.48
79.85
75.12
71.55
70.14
71.29
74.75
79.82
85.61
91.38
96.72
101.41
105.34
108.28
109.87
109.69
107.39
102.85
96.31
88.30
79.56
70.88
62.91
55.94
49.85
44.27
38.64
32.58
25.97
18.99
12.02
5.46
-0.49
-5.92
-11.21
-16.97
-23.75
-31.92
-41.40
-51.69
-61.98
-71.48
-79.66
-86.51
-92.67
-99.26
-107.60
-118.82
-133.29
-150.15
-167.06
-180.40
-186.06
-180.57
-162.33
-132.32
-93.97
-52.19
-12.07
22.42
49.12
67.61
78.68
83.66
83.94
80.85
75.72
69.96
65.05
62.25
62.29
65.16
70.17
76.17
82.02
86.96
90.79
93.74
96.12
97.98
98.98
98.50
95.93
91.07
84.19
76.04
67.51
59.37
52.01
45.51
39.70
34.35
29.25
24.26
19.24
14.12
8.89
3.63
-1.55
-6.59
-11.65
-17.07
-23.25
-30.43
-38.53
-47.10
-55.48
-63.09
-69.70
-75.51
-81.18
-87.62
-95.76
-106.31
-119.37
-134.06
-148.37
-159.28
-163.41
-157.97
-141.73
-115.59
-82.42
-46.32
-11.48
18.74
42.38
58.90
68.74
72.84
72.26
68.16
61.69
54.19
47.13
41.88
39.42
40.16
43.79
49.49
56.21
62.93
68.91
73.62
76.74
78.04
77.38
74.77
70.39
64.56
57.70
50.24
42.62
35.16
28.06
21.39
15.11
9.10
3.25
-2.54
-8.33
-14.17
-20.17
-26.37
-32.74
-39.14
-45.37
-51.25
-56.80
-62.28
-68.20
-75.24
-84.03
-94.85
-107.29
-120.01
-130.73
-136.60
-134.99
-124.27
-104.55
-77.71
-46.95
-15.90
12.26
35.40
52.47
63.35
68.38
68.21
63.71
56.04
46.68
37.34
29.63
24.80
23.41
25.29
29.68
35.55
41.90
47.95
53.19
57.18
59.48
59.57
57.01
51.62
43.71
34.11
23.98
14.46
6.25
-0.61
-6.69
-12.85
-19.78
-27.75
-36.44
-45.14
-53.18
-60.19
-66.30
-72.11
-78.56
-86.63
-97.00
-109.70
-123.73
-136.96
-146.33
-148.67
-141.60
-124.51
-98.80
-67.62
-34.93
-4.42
21.25
40.72
53.73
60.75
62.60
60.23
54.78
47.58
40.10
33.82
29.93
29.10
31.30
35.89
41.81
47.92
53.26
57.12
59.10
58.92
56.50
51.95
45.61
37.96
29.44
20.35
10.74
0.56
-10.12
-21.06
-31.77
-41.76
-50.71
-58.58
-65.63
-72.43
-79.78
-88.65
-99.89
-113.78
-129.53
-144.90
-156.53
-160.71
-154.65
-137.44
-110.59
-77.56
-42.72
-10.14
17.32
38.42
53.29
62.86
68.30
70.70
70.99
70.10
68.99
68.56
69.46
71.87
75.42
79.40
83.05
85.87
87.82
89.15
90.14
90.86
90.92
89.63
86.24
80.31
71.90
61.70
50.77
40.20
30.72
22.45
14.93
7.38
-0.90
-10.19
-20.27
-30.56
-40.38
-49.28
-57.27
-64.82
-72.80
-82.26
-94.18
-109.00
-126.21
-144.04
-159.49
-168.83
-168.63
-156.87
-133.80
-101.98
-65.63
-29.39
2.94
29.21
48.97
63.01
72.66
79.12
83.27
85.65
86.78
87.23
87.70
88.85
91.07
94.34
98.23
102.12
105.44
107.93
109.63
110.75
111.40
111.42
110.41
107.83
103.33
96.93
89.10
80.64
72.40
65.02
58.78
53.55
48.91
44.30
39.24
33.45
26.91
19.91
12.87
6.19
0.06
-5.71
-11.61
-18.25
-26.14
-35.40
-45.66
-56.17
-66.12
-74.89
-82.36
-89.02
-95.89
-104.21
-115.12
-129.18
-145.90
-163.49
-178.95
-188.58
-188.92
-177.76
-155.02
-122.88
-85.37
-47.19
-12.53
15.84
36.88
51.05
59.64
64.16
65.94
66.00
65.20
64.34
64.16
65.29
68.04
72.29
77.50
82.90
87.80
91.78
94.71
96.69
97.77
97.76
96.27
92.88
87.48
80.41
72.52
64.82
58.12
52.68
48.15
43.80
38.94
33.29
27.06
20.83
15.19
10.34
6.02
1.61
-3.57
-9.89
-17.27
-25.22
-33.04
-40.21
-46.56
-52.39
-58.40
-65.46
-74.37
-85.54
-98.75
-112.84
-125.73
-134.63
-136.70
-129.84
-113.42
-88.69
-58.55
-26.77
2.99
28.02
46.97
59.66
66.65
68.74
66.81
61.80
54.95
47.83
42.12
39.22
39.82
43.64
49.58
56.17
62.12
66.73
69.90
71.86
72.79
72.55
70.68
66.64
60.17
51.57
41.60
31.33
21.83
13.81
7.50
2.53
-1.84
-6.54
-12.34
-19.51
-27.76
-36.37
-44.51
-51.67
-57.90
-63.76
-70.17
-78.06
-88.20
-100.83
-115.48
-130.62
-143.76
-151.74
-151.54
-141.32
-121.18
-93.24
-61.13
-28.91
-0.01
23.45
40.78
52.36
59.18
62.38
63.06
62.17
60.61
59.17
58.53
59.16
61.17
64.32
68.10
71.88
75.19
77.74
79.44
80.28
80.21
79.18
77.10
73.93
69.69
64.49
58.45
51.76
44.61
37.25
29.98
23.02
16.50
10.42
4.70
-0.87
-6.57
-12.67
-19.41
-26.82
-34.70
-42.68
-50.33
-57.37
-63.90
-70.34
-77.41
-85.90
-96.46
-109.23
-123.50
-137.56
-148.72
-153.82
-150.21
-136.61
-113.82
-84.58
-52.83
-22.54
3.30
23.27
37.44
46.75
52.46
55.68
57.24
57.78
57.88
58.14
59.02
60.77
63.31
66.27
69.18
71.67
73.65
75.27
76.78
78.28
79.61
80.32
79.83
77.67
73.60
67.83
60.86
53.42
46.26
39.94
34.67
30.28
26.33
22.30
17.82
12.81
7.46
2.08
-3.03
-7.81
-12.39
-17.16
-22.58
-29.01
-36.51
-44.76
-53.13
-60.84
-67.39
-72.76
-77.49
-82.59
-89.19
-98.21
-109.90
-123.60
-137.52
-148.95
-154.72
-152.10
-139.72
-118.19
-90.05
-59.11
-29.30
-3.65
16.28
30.34
39.37
44.58
47.14
48.04
48.03
47.78
47.80
48.53
50.18
52.72
55.87
59.17
62.23
64.86
67.11
69.17
71.12
72.81
73.79
73.50
71.52
67.78
62.63
56.65
50.52
44.77
39.71
35.41
31.73
28.40
25.04
21.34
17.08
12.27
7.12
1.92
-3.03
-7.57
-11.76
-15.91
-20.46
-25.83
-32.25
-39.52
-47.17
-54.51
-61.01
-66.54
-71.47
-76.61
-82.94
-91.32
-102.09
-114.86
-128.23
-139.96
-147.24
-147.45
-138.91
-121.50
-96.89
-68.04
-38.48
-11.38
11.09
27.98
39.35
45.92
48.71
48.75
47.10
44.74
42.63
41.53
41.92
43.93
47.26
51.40
55.76
59.89
63.56
66.70
69.22
70.96
71.67
71.03
68.84
65.11
60.10
54.29
48.22
42.35
36.96
32.09
27.60
23.23
18.76
14.08
9.20
4.27
-0.57
-5.26
-9.93
-14.87
-20.38
-26.63
-33.49
-40.60
-47.48
-53.84
-59.72
-65.53
-71.93
-79.64
-89.17
-100.59
-113.28
-125.78
-135.78
-140.52
-137.55
-125.57
-105.10
-78.44
-49.04
-20.50
4.44
24.28
38.69
48.09
53.10
54.39
52.78
49.29
45.25
42.00
40.55
41.34
44.11
48.24
52.94
57.64
62.01
65.93
69.30
71.87
73.29
73.12
71.11
67.27
61.99
55.91
49.73
44.00
38.90
34.28
29.72
24.80
19.33
13.40
7.37
1.67
-3.41
-7.90
-12.07
-16.40
-21.30
-27.01
-33.45
-40.26
-46.98
-53.24
-59.00
-64.58
-70.61
-77.84
-86.85
-97.78
-109.99
-121.94
-131.28
-135.26
-131.48
-118.73
-97.51
-70.09
-39.93
-10.78
14.34
33.73
47.03
54.83
58.17
58.09
55.58
51.59
47.18
43.40
41.22
41.18
43.29
47.07
51.75
56.58
60.97
64.61
67.32
68.94
69.25
68.01
65.11
60.59
54.74
48.01
40.97
34.10
27.77
22.16
17.26
12.88
8.71
4.43
-0.24
-5.43
-11.15
-17.24
-23.46
-29.54
-35.25
-40.53
-45.50
-50.44
-55.77
-61.99
-69.45
-78.16
-87.60
-96.58
-103.24
-105.46
-101.48
-90.43
-72.77
-50.28
-25.54
-1.36
20.00
37.10
49.33
56.68
59.40
57.85
52.49
44.06
33.65
22.74
12.95
5.71
1.90
1.63
4.25
8.61
13.33
17.18
19.29
19.16
16.67
12.06
5.77
-1.58
-9.33
-16.94
-24.07
-30.59
-36.47
-41.73
-46.24
-49.83
-52.35
-53.84
-54.72
-55.67
-57.59
-61.25
-67.01
-74.45
-82.33
-88.68
-91.15
-87.68
-77.05
-59.27
-35.68
-8.67
18.87
44.18
65.13
80.45
89.63
92.86
90.72
84.14
74.39
63.02
51.73
42.18
35.69
32.91
33.78
37.57
43.14
49.20
54.58
58.26
59.47
57.66
52.63
44.60
34.25
22.65
10.93
-0.05
-10.01
-19.32
-28.84
-39.55
-52.03
-66.14
-80.75
-93.79
-102.65
-104.73
-98.27
-82.89
-59.91
-32.04
-2.75
24.60
47.45
64.42
75.24
80.38
80.67
77.02
70.38
61.71
52.13
42.75
34.62
28.46
24.63
23.05
23.33
24.87
26.91
28.62
29.16
27.78
24.02
17.82
9.61
0.10
-9.89
-19.66
-28.86
-37.57
-46.29
-55.80
-66.80
-79.46
-92.96
-105.39
-114.04
-116.19
-109.96
-95.09
-73.06
-46.72
-19.41
5.89
27.20
43.71
55.52
63.30
67.82
69.72
69.48
67.53
64.47
61.05
58.08
56.16
55.53
55.97
57.11
58.60
60.27
61.89
63.13
63.34
61.66
57.46
50.56
41.44
30.97
20.07
9.25
-1.47
-12.52
-24.56
-38.18
-53.61
-70.37
-87.11
-101.60
-111.10
-112.98
-105.63
-89.00
-64.89
-36.42
-7.28
19.28
41.23
57.89
69.77
77.93
83.52
87.37
89.91
91.36
91.79
91.42
90.44
89.02
87.26
85.17
82.79
80.30
77.94
75.90
74.16
72.39
70.07
66.65
61.86
55.74
48.61
40.88
32.74
24.20
15.16
5.62
-4.18
-13.77
-22.65
-30.55
-37.56
-44.17
-51.14
-59.31
-69.26
-81.08
-94.09
-106.74
-116.77
-121.63
-119.23
-108.58
-90.31
-66.63
-40.72
-15.88
5.35
21.72
33.32
41.11
46.33
49.94
52.46
54.03
54.70
54.64
54.20
53.81
53.71
53.96
54.41
54.80
55.01
55.05
54.99
54.81
54.31
53.16
51.01
47.67
43.21
37.92
32.20
26.39
20.75
15.43
10.53
6.02
1.76
-2.53
-7.22
-12.55
-18.49
-24.73
-30.76
-36.13
-40.63
-44.40
-47.89
-51.68
-56.45
-62.78
-71.00
-81.00
-92.03
-102.57
-110.45
-113.42
-109.73
-98.80
-81.56
-60.25
-37.90
-17.40
-0.75
11.41
19.58
25.04
29.05
32.43
35.39
37.78
39.41
40.28
40.57
40.52
40.34
40.11
39.94
40.02
40.54
41.57
42.97
44.34
45.16
45.08
43.89
41.64
38.50
34.64
30.26
25.58
20.86
16.32
12.13
8.29
4.71
1.30
-2.05
-5.43
-8.96
-12.79
-17.04
-21.74
-26.70
-31.63
-36.25
-40.42
-44.18
-47.82
-51.73
-56.33
-61.94
-68.65
-76.14
-83.45
-89.11
-91.39
-88.79
-80.67
-67.54
-51.00
-33.23
-16.38
-2.01
9.16
17.15
22.41
25.53
27.02
27.34
26.87
25.98
25.07
24.44
24.30
24.74
25.70
27.01
28.51
30.08
31.60
32.96
34.00
34.50
34.22
33.00
30.83
27.88
24.46
20.95
17.73
14.97
12.62
10.44
8.11
5.39
2.24
-1.16
-4.51
-7.58
-10.30
-12.81
-15.34
-18.13
-21.27
-24.68
-28.17
-31.59
-34.83
-38.00
-41.29
-44.96
-49.28
-54.41
-60.29
-66.49
-72.20
-76.28
-77.40
-74.51
-67.15
-55.71
-41.41
-26.00
-11.31
1.29
11.07
17.95
22.27
24.51
25.10
24.43
22.89
20.90
18.92
17.37
16.52
16.46
17.10
18.26
19.77
21.48
23.27
24.95
26.26
26.88
26.51
25.03
22.58
19.49
16.21
13.05
10.18
7.51
4.86
2.11
-0.71
-3.39
-5.75
-7.77
-9.66
-11.83
-14.66
-18.25
-22.42
-26.73
-30.71
-34.07
-36.86
-39.38
-42.12
-45.56
-50.08
-55.73
-62.18
-68.59
-73.71
-76.09
-74.50
-68.33
-57.82
-44.08
-28.73
-13.53
0.06
11.05
19.02
24.03
26.41
26.74
25.63
23.71
21.54
19.57
18.11
17.36
17.41
18.31
20.04
22.51
25.50
28.61
31.34
33.23
33.93
33.34
31.61
29.05
26.03
22.87
19.79
16.90
14.22
11.68
9.12
6.36
3.32
0.04
-3.30
-6.47
-9.32
-11.90
-14.40
-17.10
-20.24
-23.90
-28.03
-32.41
-36.84
-41.18
-45.44
-49.82
-54.63
-60.18
-66.57
-73.44
-79.90
-84.61
-86.05
-82.99
-74.94
-62.33
-46.51
-29.31
-12.60
2.16
14.13
23.03
28.96
32.16
32.92
31.61
28.81
25.29
21.94
19.57
18.71
19.53
21.84
25.27
29.35
33.57
37.45
40.53
42.46
43.00
42.16
40.11
37.19
33.76
30.17
26.73
23.59
20.74
18.04
15.21
12.01
8.34
4.26
-0.02
-4.32
-8.55
-12.74
-16.96
-21.20
-25.40
-29.48
-33.44
-37.39
-41.61
-46.43
-52.18
-59.14
-67.36
-76.52
-85.76
-93.64
-98.37
-98.22
-92.11
-80.00
-63.01
-43.11
-22.61
-3.58
12.54
25.06
33.89
39.35
41.92
42.15
40.59
37.89
34.78
32.00
30.17
29.67
30.59
32.81
36.09
40.09
44.41
48.56
52.01
54.23
54.87
53.85
51.34
47.67
43.16
38.07
32.62
27.03
21.57
16.52
12.00
7.92
3.95
-0.33
-5.27
-10.92
-17.06
-23.25
-29.05
-34.17
-38.66
-42.91
-47.53
-53.23
-60.55
-69.67
-80.18
-90.89
-99.98
-105.27
-104.79
-97.37
-83.10
-63.34
-40.43
-17.01
4.54
22.52
36.07
45.04
49.73
50.84
49.25
45.96
42.03
38.40
35.77
34.52
34.73
36.20
38.65
41.75
45.20
48.74
52.13
55.05
57.12
57.90
56.93
53.99
49.10
42.68
35.43
28.14
21.46
15.70
10.80
6.30
1.62
-3.71
-9.90
-16.72
-23.72
-30.41
-36.48
-41.98
-47.40
-53.41
-60.75
-69.81
-80.38
-91.43
-101.11
-107.12
-107.26
-100.16
-85.75
-65.34
-41.32
-16.43
6.88
26.90
42.67
53.85
60.49
62.95
61.87
58.22
53.25
48.26
44.32
42.16
42.07
43.88
47.17
51.39
55.93
60.25
63.87
66.38
67.42
66.73
64.16
59.84
54.16
47.70
41.06
34.65
28.57
22.64
16.54
9.99
2.95
-4.44
-11.78
-18.60
-24.54
-29.49
-33.82
-38.32
-44.03
-51.91
-62.29
-74.55
-86.96
-97.02
-102.06
-99.99
-89.96
-72.66
-50.12
-25.19
-0.83
20.56
37.49
49.37
56.28
58.69
57.25
52.81
46.43
39.39
33.02
28.52
26.59
27.39
30.47
34.98
39.94
44.50
48.03
50.26
51.14
50.71
49.03
46.09
41.84
36.25
29.37
21.43
12.81
4.03
-4.37
-11.89
-18.27
-23.55
-28.10
-32.61
-37.98
-45.01
-54.09
-64.95
-76.42
-86.55
-93.02
-93.66
-87.16
-73.48
-53.98
-30.99
-7.25
14.78
33.29
47.27
56.38
60.72
60.67
56.96
50.66
43.16
35.95
30.40
27.37
27.02
28.83
31.81
34.90
37.33
38.76
39.35
39.37
38.96
37.84
35.41
30.95
24.04
14.85
4.13
-6.94
-17.24
-26.06
-33.30
-39.46
-45.47
-52.38
-61.08
-71.93
-84.44
-97.19
-107.91
-113.95
-113.03
-103.97
-87.08
-64.21
-38.27
-12.41
10.69
29.33
42.94
51.80
56.66
58.43
57.92
55.87
53.04
50.19
48.13
47.43
48.33
50.61
53.70
56.87
59.48
61.13
61.65
61.05
59.45
56.93
53.56
49.25
43.82
37.09
28.99
19.73
9.84
0.05
-8.98
-16.86
-23.66
-29.81
-36.03
-43.04
-51.44
-61.64
-73.64
-86.85
-99.89
-110.63
-116.50
-115.25
-105.63
-87.97
-64.19
-37.31
-10.65
13.04
32.08
45.98
55.17
60.53
63.05
63.64
63.14
62.31
61.81
62.10
63.38
65.52
68.17
70.95
73.58
75.97
78.12
80.02
81.57
82.56
82.69
81.71
79.41
75.70
70.71
64.72
58.15
51.45
44.92
38.64
32.61
26.77
21.11
15.68
10.50
5.41
0.11
-5.81
-12.66
-20.46
-28.86
-37.29
-45.08
-51.78
-57.39
-62.42
-67.79
-74.70
-84.09
-96.33
-110.81
-125.78
-138.57
-146.10
-145.66
-135.76
-116.65
-90.45
-60.59
-30.90
-4.64
16.22
31.11
40.65
46.07
48.69
49.67
49.92
50.13
50.78
52.19
54.43
57.36
60.71
64.14
67.41
70.35
72.95
75.27
77.36
79.20
80.53
80.94
79.94
77.21
72.74
66.92
60.41
53.90
47.95
42.87
38.70
35.26
32.22
29.21
25.79
21.67
16.76
11.24
5.53
0.05
-4.97
-9.52
-13.90
-18.56
-23.90
-30.13
-37.20
-44.79
-52.43
-59.65
-66.23
-72.30
-78.38
-85.24
-93.69
-104.17
-116.42
-129.20
-140.42
-147.39
-147.58
-139.38
-122.69
-99.08
-71.44
-43.06
-16.87
5.21
22.38
34.66
42.53
46.64
47.70
46.55
44.26
42.00
40.85
41.58
44.39
48.90
54.32
59.71
64.32
67.83
70.31
72.06
73.24
73.75
73.19
71.18
67.59
62.74
57.24
51.77
46.77
42.26
37.96
33.47
28.51
23.06
17.28
11.55
6.21
1.44
-2.80
-6.82
-11.08
-15.98
-21.74
-28.25
-35.16
-41.99
-48.33
-53.96
-58.95
-63.73
-69.03
-75.65
-84.19
-94.54
-105.61
-115.31
-120.99
-120.16
-111.38
-94.73
-71.92
-45.79
-19.55
4.04
23.14
37.03
45.87
50.28
51.05
48.99
44.90
39.84
35.00
31.60
30.51
32.02
35.69
40.59
45.66
50.13
53.62
56.16
57.91
58.96
59.20
58.35
56.13
52.41
47.25
40.95
33.94
26.67
19.50
12.74
6.54
1.06
-3.63
-7.63
-11.26
-15.05
-19.56
-25.15
-31.84
-39.22
-46.71
-53.78
-60.22
-66.15
-72.06
-78.57
-86.30
-95.65
-106.47
-117.84
-127.90
-134.16
-134.10
-126.01
-109.72
-86.75
-59.92
-32.48
-7.29
13.79
29.92
41.09
47.75
50.53
50.22
47.79
44.40
41.30
39.60
39.97
42.46
46.56
51.44
56.26
60.45
63.81
66.39
68.21
69.18
69.04
67.58
64.73
60.73
55.97
50.82
45.53
40.10
34.44
28.46
22.22
15.93
9.93
4.47
-0.37
-4.78
-9.17
-14.07
-19.88
-26.67
-34.21
-41.96
-49.38
-56.16
-62.31
-68.31
-74.93
-83.01
-93.11
-105.13
-118.00
-129.66
-137.37
-138.46
-131.12
-115.10
-91.85
-64.12
-35.27
-8.32
14.52
32.18
44.54
52.12
55.71
56.19
54.45
51.40
48.02
45.26
43.94
44.50
46.96
50.94
55.79
60.87
65.63
69.73
72.89
74.85
75.35
74.23
71.51
67.46
62.47
56.97
51.27
45.51
39.67
33.70
27.58
21.43
15.47
9.91
4.83
0.07
-4.74
-10.10
-16.33
-23.46
-31.18
-38.93
-46.23
-52.85
-58.95
-65.03
-71.83
-80.10
-90.27
-102.16
-114.68
-125.73
-132.57
-132.52
-123.84
-106.45
-82.06
-53.71
-24.95
1.16
22.60
38.48
48.82
54.12
55.14
52.79
48.14
42.46
37.14
33.42
32.15
33.57
37.30
42.44
48.00
53.15
57.44
60.81
63.34
65.07
65.78
65.05
62.40
57.56
50.75
42.62
34.12
26.14
19.16
13.13
7.50
1.57
-5.16
-12.76
-20.82
-28.68
-35.81
-42.05
-47.68
-53.38
-60.05
-68.47
-79.13
-91.94
-105.91
-119.18
-129.21
-133.28
-129.27
-116.33
-95.23
-68.25
-38.55
-9.44
16.38
37.20
52.40
62.13
66.98
67.72
65.20
60.38
54.40
48.63
44.36
42.55
43.52
46.85
51.63
56.80
61.51
65.36
68.23
70.07
70.72
69.86
67.07
62.16
55.33
47.15
38.46
30.11
22.66
16.25
10.57
5.05
-0.94
-7.86
-15.78
-24.41
-33.21
-41.53
-48.88
-55.16
-60.71
-66.34
-73.06
-81.88
-93.32
-107.06
-121.69
-134.71
-142.97
-143.43
-134.07
-114.67
-87.04
-54.63
-21.61
8.28
32.55
50.26
61.77
68.07
70.26
69.32
66.13
61.73
57.29
54.00
52.69
53.65
56.53
60.59
65.10
69.51
73.53
76.97
79.62
81.10
81.05
79.28
75.79
70.83
64.75
57.85
50.40
42.66
34.93
27.56
20.82
14.77
9.23
3.77
-2.02
-8.44
-15.52
-23.08
-30.81
-38.40
-45.63
-52.45
-59.02
-65.69
-73.12
-82.07
-93.14
-106.32
-120.60
-133.80
-142.92
-144.86
-137.39
-119.95
-93.86
-62.13
-28.59
3.03
29.84
50.26
63.90
71.36
73.70
72.20
68.14
62.70
57.01
52.13
48.95
48.04
49.53
53.00
57.68
62.64
67.14
70.73
73.27
74.76
75.15
74.26
71.76
67.40
61.15
53.30
44.51
35.55
27.09
19.44
12.50
5.88
-0.90
-8.14
-15.82
-23.61
-31.09
-37.92
-44.05
-49.81
-55.83
-62.94
-71.83
-82.77
-95.18
-107.50
-117.36
-122.07
-119.40
-108.28
-89.17
-64.05
-35.85
-7.77
17.44
37.90
52.77
62.02
66.08
65.64
61.48
54.53
45.96
37.19
29.71
24.76
23.03
24.48
28.48
33.96
39.80
44.97
48.71
50.53
50.26
47.97
43.89
38.40
31.84
24.46
16.53
8.29
-0.02
-8.20
-16.15
-23.84
-31.36
-38.81
-46.34
-54.19
-62.78
-72.58
-83.84
-96.20
-108.42
-118.35
-123.38
-121.15
-110.32
-91.13
-65.43
-36.25
-7.01
19.23
40.46
55.86
65.52
70.06
70.20
66.63
60.10
51.58
42.45
34.25
28.42
25.85
26.68
30.25
35.35
40.58
44.71
46.92
46.94
44.93
41.28
36.35
30.30
23.03
14.43
4.53
-6.35
-17.61
-28.54
-38.65
-47.77
-56.14
-64.33
-73.11
-83.21
-95.15
-108.86
-123.46
-137.16
-147.41
-151.41
-146.87
-132.67
-109.40
-79.31
-45.80
-12.64
16.93
40.86
58.37
69.77
75.91
77.81
76.45
72.83
68.00
63.07
59.09
56.78
56.34
57.59
60.11
63.41
67.07
70.65
73.58
75.22
74.87
72.06
66.72
59.24
50.37
40.97
31.75
22.96
14.46
5.82
-3.35
-13.16
-23.34
-33.39
-42.83
-51.42
-59.37
-67.19
-75.70
-85.80
-98.14
-112.74
-128.52
-143.09
-153.03
-154.72
-145.58
-125.08
-95.17
-59.74
-23.48
9.45
36.37
56.33
69.70
77.61
81.29
81.86
80.29
77.53
74.51
72.21
71.43
72.57
75.55
79.78
84.37
88.42
91.28
92.72
92.91
92.12
90.54
88.19
84.81
80.14
74.02
66.57
58.15
49.27
40.44
32.06
24.30
17.17
10.44
3.80
-3.12
-10.63
-18.80
-27.53
-36.47
-45.25
-53.60
-61.49
-69.16
-77.18
-86.23
-97.04
-110.07
-125.18
-141.19
-155.72
-165.37
-166.57
-156.71
-135.17
-103.87
-66.75
-28.66
6.07
34.54
55.64
69.68
77.65
80.76
80.17
77.00
72.48
67.83
64.22
62.38
62.58
64.58
67.83
71.62
75.36
78.63
81.27
83.26
84.57
85.06
84.39
82.07
77.67
71.04
62.48
52.72
42.71
33.38
25.28
18.48
12.57
6.92
0.88
-6.00
-13.81
-22.39
-31.34
-40.14
-48.37
-55.79
-62.50
-69.05
-76.33
-85.30
-96.56
-109.92
-124.06
-136.57
-144.33
-144.30
-134.42
-114.32
-85.69
-51.88
-17.06
14.81
40.88
59.75
71.24
75.97
74.94
69.32
60.49
50.17
40.21
32.42
28.08
27.70
30.93
36.73
43.66
50.26
55.35
58.26
58.85
57.43
54.55
50.71
46.13
40.76
34.37
26.75
17.84
7.84
-2.84
-13.59
-23.82
-33.02
-40.98
-47.89
-54.28
-60.99
-68.92
-78.79
-90.82
-104.41
-117.87
-128.51
-133.14
-128.97
-114.55
-90.48
-59.44
-25.43
7.30
35.39
56.88
71.22
78.77
80.31
76.73
69.09
58.82
47.76
37.92
31.07
28.14
28.99
32.44
36.83
40.62
42.99
43.87
43.73
42.96
41.54
38.87
34.11
26.57
16.12
3.33
-10.72
-24.74
-37.60
-48.62
-57.72
-65.51
-73.12
-81.92
-93.09
-107.01
-122.87
-138.53
-150.77
-156.00
-151.25
-135.21
-108.76
-74.88
-37.93
-2.42
28.12
51.75
68.16
78.03
82.43
82.41
78.92
73.04
66.09
59.51
54.60
52.11
52.14
54.15
57.25
60.39
62.68
63.49
62.59
60.10
56.39
51.79
46.38
39.91
31.90
22.03
10.37
-2.52
-15.73
-28.31
-39.64
-49.60
-58.62
-67.47
-77.20
-88.77
-102.80
-119.20
-136.78
-153.17
-165.03
-168.75
-161.54
-142.35
-112.50
-75.41
-35.82
1.56
33.15
57.10
73.30
82.74
86.89
87.25
85.18
81.87
78.45
75.86
74.68
74.96
76.32
78.14
79.90
81.33
82.50
83.57
84.58
85.23
84.87
82.68
78.00
70.67
61.10
50.25
39.23
28.83
19.23
9.99
0.35
-10.29
-21.99
-34.18
-45.94
-56.43
-65.34
-73.09
-80.71
-89.62
-101.15
-116.08
-134.04
-153.14
-169.97
-180.16
-179.60
-165.81
-138.91
-101.88
-59.71
-17.93
18.91
48.17
69.25
83.04
91.05
94.82
95.65
94.65
92.83
91.13
90.25
90.55
91.94
94.07
96.55
99.07
101.53
103.93
106.20
108.14
109.28
109.09
107.01
102.72
96.27
88.12
79.05
69.89
61.33
53.58
46.44
39.43
32.15
24.47
16.63
8.97
1.71
-5.28
-12.43
-20.24
-28.98
-38.49
-48.28
-57.66
-66.14
-73.59
-80.41
-87.48
-96.00
-107.06
-121.28
-138.26
-156.23
-172.06
-181.77
-181.57
-169.08
-144.25
-109.64
-69.80
-29.91
5.62
34.12
54.85
68.48
76.28
79.42
78.87
75.56
70.60
65.40
61.35
59.44
59.97
62.60
66.59
71.16
75.74
79.98
83.74
86.79
88.86
89.56
88.41
85.02
79.27
71.40
62.09
52.32
43.08
35.11
28.61
23.26
18.35
13.02
6.55
-1.38
-10.54
-20.28
-29.71
-38.00
-44.79
-50.32
-55.34
-60.92
-68.13
-77.70
-89.92
-104.35
-119.63
-133.34
-142.30
-143.30
-134.09
-114.38
-86.11
-53.04
-19.56
10.50
34.75
52.40
63.81
69.91
71.61
69.83
65.51
59.81
54.09
49.65
47.41
47.65
49.88
53.19
56.60
59.47
61.62
63.31
64.80
66.07
66.75
66.21
63.90
59.52
53.19
45.31
36.50
27.45
18.83
11.18
4.85
-0.21
-4.39
-8.40
-13.01
-18.76
-25.89
-34.17
-43.02
-51.71
-59.56
-66.19
-71.73
-76.87
-82.68
-90.24
-100.18
-112.16
-124.73
-135.36
-141.04
-139.01
-127.67
-107.16
-79.56
-48.31
-17.34
9.98
31.61
46.98
56.51
61.15
61.86
59.61
55.37
50.34
45.77
42.72
41.82
43.03
45.87
49.53
53.21
56.27
58.36
59.41
59.53
58.96
57.86
56.22
53.89
50.65
46.36
41.05
34.89
28.15
21.11
14.07
7.35
1.24
-4.14
-8.90
-13.41
-18.15
-23.50
-29.52
-36.08
-42.90
-49.70
-56.32
-62.77
-69.17
-75.89
-83.42
-92.26
-102.56
-113.66
-123.84
-130.64
-131.38
-124.08
-108.20
-84.99
-57.08
-27.84
-0.49
22.59
40.18
52.13
58.99
61.56
60.68
57.19
52.06
46.43
41.54
38.43
37.68
39.24
42.49
46.62
50.82
54.50
57.33
59.10
59.72
59.09
57.26
54.33
50.52
46.11
41.31
36.28
31.08
25.65
19.93
13.97
7.91
1.98
-3.61
-8.84
-13.89
-19.06
-24.53
-30.33
-36.21
-41.92
-47.28
-52.36
-57.40
-62.75
-68.83
-76.05
-84.64
-94.44
-104.61
-113.45
-118.60
-117.72
-109.23
-92.96
-70.33
-43.96
-16.91
8.09
29.13
45.19
56.02
61.78
62.94
60.10
54.15
46.28
37.96
30.72
25.85
24.05
25.29
28.84
33.64
38.60
43.02
46.56
49.11
50.62
50.90
49.63
46.54
41.60
35.10
27.67
20.02
12.82
6.43
0.83
-4.37
-9.71
-15.69
-22.54
-30.05
-37.68
-44.79
-50.91
-56.01
-60.47
-65.10
-70.84
-78.48
-88.35
-100.06
-112.28
-122.87
-129.18
-128.74
-119.98
-102.80
-78.77
-50.67
-21.87
4.57
26.56
43.19
54.50
61.09
63.67
62.88
59.33
53.80
47.36
41.39
37.18
35.58
36.76
40.14
44.72
49.48
53.71
57.12
59.72
61.52
62.37
61.90
59.66
55.35
49.10
41.45
33.27
25.50
18.70
12.98
7.91
2.79
-2.99
-9.71
-17.24
-25.09
-32.67
-39.57
-45.69
-51.23
-56.74
-62.90
-70.46
-80.01
-91.74
-105.07
-118.60
-130.01
-136.53
-135.62
-125.73
-106.93
-80.99
-51.05
-20.73
6.73
29.19
45.77
56.61
62.48
64.30
62.98
59.41
54.58
49.53
45.33
42.81
42.37
43.92
46.97
50.80
54.74
58.33
61.39
63.88
65.70
66.59
66.09
63.71
59.18
52.67
44.80
36.42
28.36
21.05
14.49
8.31
2.06
-4.59
-11.65
-18.89
-25.93
-32.48
-38.48
-44.17
-50.05
-56.77
-64.93
-74.89
-86.50
-98.91
-110.44
-118.80
-121.56
-116.78
-103.74
-83.22
-57.47
-29.58
-2.66
20.86
39.62
53.21
61.83
65.90
65.91
62.43
56.32
48.72
41.02
34.60
30.51
29.27
30.84
34.69
39.94
45.56
50.54
54.02
55.44
54.59
51.58
46.76
40.57
33.41
25.63
17.52
9.31
1.17
-6.77
-14.47
-21.90
-29.07
-36.00
-42.84
-49.85
-57.57
-66.52
-77.02
-88.73
-100.40
-109.91
-114.68
-112.45
-101.98
-83.62
-59.22
-31.66
-4.08
20.83
41.27
56.39
66.05
70.58
70.50
66.61
59.89
51.61
43.16
35.91
30.97
29.03
30.21
34.07
39.61
45.49
50.37
53.17
53.35
50.98
46.59
40.81
34.12
26.70
18.51
9.45
-0.39
-10.68
-20.97
-30.83
-40.01
-48.50
-56.50
-64.42
-72.84
-82.43
-93.85
-107.39
-122.50
-137.54
-149.78
-155.92
-153.00
-139.48
-115.81
-84.47
-49.31
-14.43
16.76
42.15
60.99
73.53
80.59
83.16
82.29
79.08
74.73
70.49
67.51
66.56
67.85
70.97
75.03
79.09
82.41
84.74
86.19
87.03
87.32
86.79
84.86
80.95
74.79
66.62
57.13
47.25
37.76
29.09
21.17
13.50
5.45
-3.47
-13.39
-23.93
-34.36
-43.93
-52.25
-59.48
-66.36
-74.01
-83.62
-96.02
-111.34
-128.68
-145.90
-159.79
-166.68
-163.40
-148.38
-122.32
-88.18
-50.37
-13.54
18.62
44.06
62.41
74.46
81.53
84.90
85.62
84.51
82.34
79.92
78.10
77.56
78.67
81.34
85.08
89.18
93.11
96.55
99.50
101.97
103.87
104.73
103.91
100.84
95.29
87.67
78.88
70.04
62.08
55.40
49.75
44.44
38.70
32.07
24.59
16.73
9.07
2.05
-4.32
-10.45
-16.97
-24.40
-32.95
-42.40
-52.15
-61.55
-70.11
-77.79
-85.02
-92.66
-101.77
-113.24
-127.42
-143.65
-160.01
-173.42
-180.17
-176.98
-162.01
-135.65
-100.71
-61.55
-23.01
10.91
37.79
56.92
68.87
74.84
76.17
74.11
69.90
64.75
59.89
56.46
55.20
56.33
59.58
64.28
69.67
75.08
80.05
84.25
87.40
89.10
88.94
86.64
82.28
76.32
69.54
62.71
56.27
50.24
44.28
37.98
31.13
23.83
16.44
9.34
2.73
-3.48
-9.57
-15.88
-22.68
-29.98
-37.62
-45.34
-52.92
-60.31
-67.75
-75.74
-84.90
-95.82
-108.70
-123.11
-137.70
-150.17
-157.51
-156.79
-145.96
-124.71
-94.80
-59.68
-23.55
9.69
37.37
58.28
72.42
80.46
83.30
81.87
77.24
70.71
63.79
57.99
54.50
53.85
55.94
60.11
65.50
71.26
76.76
81.56
85.29
87.56
87.94
86.09
81.97
75.89
68.58
60.87
53.50
46.79
40.58
34.39
27.67
20.17
12.02
3.75
-3.97
-10.76
-16.61
-22.00
-27.68
-34.24
-41.89
-50.31
-58.89
-67.00
-74.34
-81.06
-87.75
-95.26
-104.45
-115.93
-129.63
-144.50
-158.29
-167.76
-169.37
-160.43
-140.08
-109.83
-73.27
-35.02
0.53
30.26
52.75
68.04
77.03
80.93
80.90
77.96
73.12
67.53
62.38
58.74
57.34
58.35
61.40
65.79
70.74
75.60
80.02
83.73
86.45
87.78
87.28
84.69
80.09
73.93
66.86
59.49
52.17
44.98
37.85
30.66
23.41
16.22
9.27
2.73
-3.37
-9.13
-14.83
-20.86
-27.49
-34.88
-42.87
-51.10
-59.12
-66.67
-73.89
-81.33
-89.80
-100.03
-112.22
-125.60
-138.31
-147.60
-150.45
-144.43
-128.60
-103.87
-72.89
-39.39
-7.09
21.08
43.40
59.30
68.97
72.92
71.89
66.82
59.04
50.21
42.09
36.20
33.46
34.00
37.30
42.36
48.12
53.66
58.35
61.78
63.69
63.81
61.88
57.73
51.45
43.53
34.75
25.99
17.88
10.55
3.63
-3.53
-11.53
-20.53
-30.25
-40.03
-49.16
-57.16
-64.00
-70.16
-76.51
-84.14
-93.97
-106.32
-120.49
-134.54
-145.53
-150.13
-145.55
-130.49
-105.66
-73.73
-38.60
-4.43
25.41
48.84
65.17
74.75
78.57
77.76
73.50
67.02
59.60
52.54
46.99
43.71
42.93
44.33
47.28
51.11
55.28
59.40
63.19
66.17
67.67
66.94
63.45
57.13
48.55
38.73
28.78
19.48
11.08
3.29
-4.52
-12.94
-22.20
-32.11
-42.11
-51.49
-59.76
-66.86
-73.35
-80.26
-88.82
-99.99
-113.84
-129.20
-143.65
-153.85
-156.45
-149.02
-130.88
-103.45
-69.87
-34.20
-0.39
28.61
51.25
67.20
77.01
81.55
81.76
78.63
73.27
67.01
61.23
57.12
55.35
55.96
58.51
62.28
66.55
70.76
74.45
77.18
78.53
78.04
75.41
70.52
63.60
55.16
45.96
36.81
28.28
20.57
13.36
6.01
-2.16
-11.44
-21.59
-31.87
-41.45
-49.76
-56.77
-63.09
-69.76
-77.91
-88.42
-101.46
-116.09
-130.19
-140.68
-144.22
-138.14
-121.49
-95.41
-62.93
-28.22
4.59
32.37
53.40
67.36
74.84
76.92
74.76
69.57
62.63
55.33
49.07
44.98
43.68
45.03
48.36
52.77
57.47
61.97
65.99
69.24
71.19
71.12
68.43
62.98
55.19
46.01
36.51
27.43
19.02
10.94
2.71
-6.08
-15.45
-25.02
-34.21
-42.51
-49.72
-56.11
-62.37
-69.47
-78.38
-89.71
-103.43
-118.54
-132.95
-143.69
-147.48
-141.65
-125.01
-98.48
-65.03
-28.84
5.73
35.28
57.97
73.45
82.37
85.81
84.88
80.62
74.16
66.82
60.04
55.15
53.08
54.11
57.81
63.28
69.33
74.89
79.17
81.77
82.57
81.69
79.22
75.25
69.79
62.92
54.81
45.82
36.48
27.36
18.90
11.31
4.48
-1.99
-8.66
-16.02
-24.30
-33.40
-42.91
-52.26
-60.92
-68.60
-75.36
-81.68
-88.43
-96.69
-107.48
-121.31
-137.75
-155.07
-170.24
-179.50
-179.23
-167.10
-142.92
-108.91
-69.17
-28.64
8.20
38.24
60.16
74.16
81.48
83.69
82.38
79.01
74.90
71.24
68.93
68.52
70.00
72.98
76.77
80.71
84.30
87.31
89.71
91.57
92.86
93.34
92.58
90.11
85.56
78.94
70.65
61.36
51.80
42.48
33.62
25.22
17.21
9.60
2.41
-4.41
-11.14
-18.22
-26.07
-34.84
-44.26
-53.77
-62.79
-71.02
-78.69
-86.53
-95.61
-106.92
-120.89
-137.01
-153.42
-167.11
-174.40
-171.95
-157.85
-132.34
-97.96
-58.94
-19.99
14.82
42.93
63.45
76.78
84.03
86.47
85.31
81.71
76.87
72.04
68.38
66.73
67.37
70.08
74.21
78.99
83.78
88.09
91.60
94.06
95.20
94.74
92.48
88.38
82.61
75.51
67.53
59.11
50.61
42.29
34.32
26.85
19.91
13.48
7.35
1.16
-5.52
-13.02
-21.41
-30.43
-39.59
-48.33
-56.28
-63.47
-70.22
-77.20
-85.22
-95.09
-107.28
-121.60
-136.84
-150.70
-160.02
-161.56
-152.98
-133.70
-105.22
-70.85
-34.75
-0.94
27.56
49.04
63.07
70.11
71.10
67.37
60.42
51.90
43.51
36.80
32.88
32.20
34.55
39.17
45.02
51.12
56.68
61.14
64.08
65.12
63.92
60.27
54.26
46.31
37.12
27.45
17.89
8.69
-0.23
-9.18
-18.43
-28.03
-37.74
-47.08
-55.60
-63.04
-69.62
-76.00
-83.24
-92.42
-104.29
-118.67
-134.17
-148.23
-157.44
-158.51
-149.13
-128.88
-99.42
-64.21
-27.57
6.38
34.59
55.52
69.02
75.88
77.34
74.75
69.38
62.54
55.56
49.69
46.00
45.12
47.10
51.46
57.31
63.66
69.53
74.11
76.79
77.15
74.93
70.15
63.09
54.27
44.40
34.11
23.81
13.61
3.36
-7.12
-17.85
-28.57
-38.82
-48.20
-56.64
-64.58
-72.94
-82.89
-95.44
-110.94
-128.62
-146.39
-160.99
-168.62
-165.95
-151.26
-125.10
-90.35
-51.44
-13.16
20.58
47.44
66.77
79.20
86.06
88.79
88.74
87.03
84.57
82.11
80.19
79.10
78.90
79.45
80.62
82.25
84.22
86.41
88.57
90.26
90.83
89.57
85.87
79.48
70.67
60.22
49.17
38.45
28.52
19.19
9.82
-0.31
-11.48
-23.41
-35.28
-46.23
-55.78
-64.20
-72.38
-81.61
-93.15
-107.68
-124.86
-142.96
-158.91
-168.74
-168.62
-156.17
-131.37
-96.88
-57.30
-17.82
17.23
45.32
65.85
79.56
87.78
91.78
92.63
91.24
88.64
85.94
84.21
84.13
85.86
89.01
92.81
96.57
99.81
102.50
104.79
106.84
108.51
109.34
108.64
105.81
100.60
93.24
84.47
75.27
66.53
58.78
52.11
46.14
40.30
34.05
27.09
19.51
11.70
4.16
-2.73
-8.88
-14.59
-20.43
-27.00
-34.74
-43.73
-53.65
-63.87
-73.63
-82.39
-90.01
-96.89
-103.90
-112.21
-122.89
-136.43
-152.32
-168.78
-182.86
-190.88
-189.43
-176.36
-151.68
-117.68
-78.44
-38.76
-2.87
26.37
47.82
61.70
69.01
71.01
69.01
64.34
58.47
52.95
49.18
48.11
49.96
54.25
60.00
66.10
71.65
76.17
79.56
81.89
83.23
83.47
82.25
79.17
73.97
66.70
57.87
48.35
39.15
31.08
24.51
19.17
14.31
9.02
2.57
-5.23
-14.02
-23.04
-31.53
-39.02
-45.54
-51.57
-57.89
-65.43
-75.01
-87.01
-101.06
-115.75
-128.49
-136.07
-135.50
-125.02
-104.84
-77.12
-45.40
-13.52
15.26
38.84
56.22
67.32
72.53
72.61
68.63
62.01
54.40
47.52
42.78
40.95
42.00
45.24
49.60
54.09
58.05
61.22
63.59
65.12
65.56
64.48
61.45
56.25
49.05
40.41
31.12
21.99
13.62
6.27
-0.27
-6.51
-13.12
-20.57
-28.96
-37.91
-46.72
-54.74
-61.64
-67.70
-73.76
-81.01
-90.55
-102.89
-117.50
-132.58
-145.20
-151.91
-149.75
-137.22
-114.89
-85.39
-52.62
-20.66
7.38
29.82
46.40
57.70
64.59
67.90
68.30
66.54
63.54
60.37
57.98
57.05
57.78
59.89
62.85
65.99
68.85
71.14
72.84
74.03
74.72
74.73
73.67
71.06
66.55
60.12
52.15
43.40
34.71
26.77
19.88
13.89
8.34
2.58
-3.91
-11.35
-19.64
-28.38
-37.03
-45.10
-52.32
-58.74
-64.73
-70.95
-78.18
-87.25
-98.57
-111.89
-125.86
-138.05
-145.40
-144.95
-134.93
-115.39
-88.36
-57.32
-26.15
1.88
24.77
41.86
53.52
60.55
63.83
64.14
62.30
59.24
56.07
53.88
53.38
54.76
57.60
61.14
64.61
67.58
69.99
71.94
73.46
74.31
74.06
72.28
68.86
64.08
58.52
52.76
47.21
41.93
36.76
31.47
25.90
20.06
14.11
8.23
2.59
-2.81
-8.07
-13.36
-18.90
-24.93
-31.61
-39.01
-47.01
-55.26
-63.28
-70.65
-77.29
-83.66
-90.70
-99.41
-110.24
-122.56
-134.43
-142.92
-144.90
-138.12
-121.95
-97.70
-68.29
-37.38
-8.44
15.99
34.69
47.51
55.10
58.37
58.30
55.86
52.00
47.74
44.09
41.83
41.42
42.87
45.82
49.62
53.57
57.11
59.88
61.75
62.73
62.83
61.94
59.87
56.40
51.40
45.04
37.78
30.29
23.26
17.18
12.12
7.77
3.53
-1.24
-6.98
-13.76
-21.23
-28.82
-35.88
-42.00
-47.11
-51.54
-55.94
-61.15
-67.94
-76.78
-87.53
-99.24
-110.05
-117.45
-118.85
-112.31
-97.34
-75.13
-48.38
-20.46
5.43
27.06
43.42
54.49
60.78
62.93
61.56
57.31
51.03
43.83
37.05
31.93
29.33
29.54
32.22
36.58
41.68
46.62
50.74
53.56
54.64
53.58
50.14
44.42
37.01
28.87
21.02
14.08
8.08
2.45
-3.52
-10.33
-18.08
-26.39
-34.70
-42.51
-49.55
-55.83
-61.66
-67.65
-74.60
-83.24
-93.84
-105.74
-117.25
-125.70
-128.21
-122.46
-107.64
-84.73
-56.40
-26.21
2.33
26.56
45.09
57.69
64.82
67.23
65.80
61.49
55.51
49.28
44.22
41.37
41.08
42.95
46.14
49.73
53.05
55.83
58.08
59.80
60.81
60.73
59.02
55.28
49.44
41.87
33.35
24.75
16.69
9.38
2.48
-4.62
-12.50
-21.33
-30.78
-40.12
-48.56
-55.65
-61.50
-66.77
-72.54
-79.93
-89.77
-102.17
-116.25
-130.00
-140.54
-144.73
-140.04
-125.43
-101.83
-71.97
-39.70
-8.88
17.54
38.06
52.50
61.63
66.57
68.41
68.04
66.27
63.89
61.64
60.21
60.01
61.14
63.37
66.31
69.53
72.75
75.78
78.50
80.68
81.94
81.86
80.04
76.43
71.26
65.09
58.52
52.01
45.68
39.36
32.77
25.74
18.36
10.98
4.00
-2.33
-8.08
-13.57
-19.30
-25.66
-32.85
-40.73
-48.95
-57.05
-64.68
-71.73
-78.49
-85.63
-93.97
-104.22
-116.60
-130.39
-143.79
-154.13
-158.36
-153.86
-139.36
-115.46
-84.62
-50.63
-17.51
11.48
34.46
51.04
61.86
67.99
70.48
70.22
68.02
64.76
61.45
58.97
57.98
58.72
60.99
64.37
68.36
72.57
76.68
80.42
83.50
85.51
85.96
84.43
80.75
75.14
68.24
60.95
54.07
48.03
42.75
37.73
32.41
26.49
20.05
13.50
7.30
1.67
-3.58
-8.87
-14.72
-21.44
-29.00
-36.99
-44.86
-52.12
-58.64
-64.79
-71.26
-78.92
-88.49
-100.19
-113.51
-127.12
-138.83
-146.02
-146.11
-137.29
-119.24
-93.28
-62.29
-29.91
0.38
26.02
45.69
59.18
66.98
69.88
68.74
64.52
58.29
51.35
45.08
40.74
39.13
40.45
44.22
49.53
55.28
60.54
64.72
67.63
69.23
69.51
68.29
65.29
60.25
53.23
44.66
35.32
26.14
17.87
10.83
4.83
-0.75
-6.69
-13.56
-21.42
-29.85
-38.13
-45.57
-51.90
-57.39
-62.78
-69.12
-77.42
-88.36
-101.93
-117.10
-131.68
-142.62
-146.68
-141.38
-125.84
-101.21
-70.32
-36.97
-4.88
23.03
45.02
60.55
69.98
74.22
74.46
71.91
67.66
62.74
58.04
54.37
52.41
52.46
54.39
57.63
61.45
65.12
68.26
70.74
72.58
73.68
73.72
72.22
68.74
63.02
55.17
45.74
35.59
25.65
16.78
9.42
3.48
-1.65
-6.82
-12.84
-20.13
-28.65
-37.95
-47.35
-56.21
-64.17
-71.22
-77.80
-84.71
-92.89
-103.16
-115.76
-129.93
-143.82
-154.57
-158.95
-154.20
-138.92
-113.71
-81.13
-45.07
-9.76
21.30
45.96
63.61
74.70
80.27
81.47
79.37
75.05
69.72
64.63
60.94
59.44
60.35
63.34
67.70
72.59
77.25
81.13
83.93
85.46
85.69
84.59
82.16
78.35
73.14
66.53
58.67
49.92
40.87
32.14
24.24
17.30
11.15
5.25
-0.99
-8.00
-15.94
-24.61
-33.61
-42.44
-50.70
-58.24
-65.22
-72.13
-79.79
-89.06
-100.57
-114.34
-129.33
-143.44
-153.70
-156.97
-150.80
-134.26
-108.34
-75.81
-40.53
-6.49
23.08
46.28
62.51
72.18
76.15
75.44
71.09
64.22
56.30
48.99
43.94
42.31
44.44
49.67
56.72
64.10
70.59
75.53
78.75
80.34
80.43
79.00
75.90
71.03
64.42
56.42
47.65
38.84
30.64
23.31
16.73
10.43
3.85
-3.41
-11.44
-20.01
-28.72
-37.13
-44.94
-52.03
-58.53
-64.85
-71.71
-80.00
-90.48
-103.43
-118.19
-132.94
-144.88
-150.77
-147.85
-134.61
-111.46
-80.71
-46.05
-11.56
19.22
43.99
61.87
73.06
78.41
78.95
75.81
70.15
63.37
56.97
52.32
50.37
51.38
54.93
60.13
66.00
71.74
76.80
80.79
83.39
84.25
83.05
79.68
74.35
67.60
60.15
52.67
45.53
38.74
32.05
25.14
17.89
10.43
3.04
-3.98
-10.57
-16.91
-23.36
-30.26
-37.77
-45.77
-53.94
-61.90
-69.45
-76.59
-83.67
-91.29
-100.26
-111.32
-124.81
-140.22
-155.85
-168.89
-175.88
-173.63
-160.27
-135.95
-102.97
-65.14
-26.87
7.98
36.76
58.31
72.68
80.69
83.50
82.42
78.81
74.05
69.45
66.14
64.82
65.65
68.35
72.31
76.89
81.58
86.07
90.10
93.42
95.63
96.25
94.85
91.24
85.54
78.27
70.18
62.11
54.68
48.12
42.24
36.56
30.56
23.95
16.84
9.64
2.88
-3.14
-8.46
-13.57
-19.11
-25.62
-33.30
-41.93
-50.97
-59.81
-68.02
-75.47
-82.47
-89.67
-97.93
-108.07
-120.48
-134.77
-149.40
-161.70
-168.33
-166.18
-153.29
-129.64
-97.30
-59.94
-21.90
12.88
41.62
62.93
76.75
83.78
85.18
82.27
76.45
69.24
62.25
56.92
54.31
54.82
58.13
63.38
69.50
75.55
80.91
85.23
88.32
89.93
89.77
87.59
83.32
77.26
69.98
62.15
54.35
46.84
39.57
32.27
24.69
16.76
8.71
0.98
-6.03
-12.18
-17.70
-23.13
-29.05
-35.84
-43.53
-51.77
-60.10
-68.18
-75.91
-83.60
-91.79
-101.19
-112.40
-125.63
-140.26
-154.56
-165.72
-170.35
-165.40
-149.27
-122.53
-87.87
-49.43
-11.65
21.84
48.77
68.35
80.82
87.01
88.00
84.96
79.26
72.44
66.04
61.42
59.44
60.29
63.51
68.25
73.58
78.78
83.41
87.25
90.12
91.69
91.50
89.15
84.51
77.89
69.98
61.68
53.77
46.60
40.04
33.64
26.87
19.49
11.69
3.98
-3.09
-9.24
-14.64
-19.91
-25.80
-32.83
-41.07
-50.12
-59.26
-67.83
-75.53
-82.53
-89.49
-97.34
-107.05
-119.19
-133.64
-149.14
-163.31
-172.85
-174.33
-165.15
-144.45
-113.64
-76.13
-36.49
0.75
32.20
56.09
72.20
81.28
84.54
83.23
78.63
72.05
64.94
58.74
54.65
53.39
55.05
59.17
64.99
71.61
78.19
84.04
88.57
91.37
92.17
90.89
87.63
82.68
76.37
69.10
61.21
52.97
44.61
36.29
28.17
20.40
13.14
6.47
0.37
-5.35
-11.06
-17.21
-24.18
-32.17
-41.06
-50.43
-59.68
-68.28
-75.98
-83.01
-90.10
-98.34
-108.77
-121.83
-136.84
-151.76
-163.36
-168.01
-162.70
-146.04
-118.83
-83.91
-45.39
-7.55
26.08
53.23
72.98
85.40
91.19
91.39
87.24
80.23
72.05
64.43
58.85
56.24
56.72
59.73
64.24
69.23
74.01
78.29
82.05
85.18
87.33
87.82
85.97
81.46
74.60
66.30
57.75
49.91
43.14
37.11
31.08
24.31
16.60
8.30
0.15
-7.10
-13.14
-18.28
-23.23
-28.81
-35.56
-43.51
-52.23
-61.05
-69.33
-76.77
-83.48
-90.01
-97.22
-106.12
-117.45
-131.33
-146.77
-161.51
-172.25
-175.42
-168.19
-149.53
-120.56
-84.36
-45.14
-7.15
26.21
52.82
71.84
83.45
88.47
88.15
83.96
77.50
70.37
63.94
59.31
57.09
57.43
59.99
64.14
69.15
74.39
79.44
84.10
88.11
91.06
92.32
91.22
87.39
80.96
72.65
63.52
54.61
46.59
39.56
33.12
26.76
20.08
13.01
5.84
-1.03
-7.29
-12.95
-18.39
-24.15
-30.73
-38.28
-46.53
-54.90
-62.77
-69.79
-76.07
-82.13
-88.86
-97.21
-107.96
-121.34
-136.74
-152.37
-165.37
-172.25
-169.83
-156.19
-131.48
-98.03
-59.74
-21.05
14.11
43.11
64.78
79.15
86.95
89.20
87.02
81.58
74.23
66.48
59.78
55.33
53.75
55.03
58.61
63.70
69.51
75.42
80.93
85.54
88.73
89.96
88.84
85.28
79.55
72.19
63.81
55.06
46.39
38.11
30.33
23.04
16.15
9.51
2.99
-3.52
-10.10
-16.79
-23.57
-30.42
-37.24
-43.90
-50.34
-56.58
-62.84
-69.54
-77.31
-86.82
-98.40
-111.68
-125.27
-136.76
-143.13
-141.57
-130.36
-109.47
-80.69
-47.22
-12.72
19.44
46.76
67.82
82.09
89.67
91.12
87.36
79.70
69.72
59.11
49.48
42.11
37.71
36.48
38.11
42.00
47.32
53.24
58.91
63.50
66.25
66.46
63.66
57.73
49.02
38.36
26.90
15.78
5.74
-3.01
-10.94
-18.83
-27.42
-37.00
-47.22
-57.28
-66.35
-74.04
-80.60
-86.90
-94.17
-103.54
-115.61
-130.01
-145.25
-158.77
-167.30
-167.58
-157.39
-136.21
-105.60
-68.92
-30.41
5.77
36.50
60.09
76.18
85.37
88.72
87.48
82.89
76.15
68.56
61.42
55.93
53.03
53.06
55.75
60.22
65.33
70.07
73.79
76.30
77.58
77.52
75.76
71.79
65.31
56.54
46.25
35.58
25.53
16.56
8.46
0.49
-8.14
-17.88
-28.63
-39.76
-50.33
-59.56
-67.15
-73.48
-79.58
-86.88
-96.74
-109.92
-126.10
-143.62
-159.55
-170.26
-172.22
-162.99
-142.06
-111.13
-73.75
-34.42
2.53
33.93
58.16
75.06
85.37
90.23
90.85
88.45
84.25
79.50
75.32
72.54
71.61
72.58
75.22
79.15
83.95
89.09
94.02
98.05
100.54
100.92
98.89
94.46
88.00
80.11
71.48
62.73
54.21
45.95
37.81
29.59
21.29
13.09
5.31
-1.85
-8.47
-14.90
-21.65
-29.14
-37.50
-46.58
-55.93
-65.05
-73.55
-81.32
-88.64
-96.19
-104.97
-116.02
-130.00
-146.62
-164.16
-179.53
-188.70
-187.84
-174.51
-148.62
-112.61
-70.83
-28.38
10.24
41.96
65.51
81.02
89.46
92.17
90.52
85.97
80.03
74.25
69.95
68.01
68.69
71.60
75.97
80.98
86.00
90.66
94.76
98.08
100.21
100.62
98.75
94.36
87.61
79.07
69.61
60.05
50.99
42.69
35.09
27.98
21.16
14.59
8.35
2.49
-3.09
-8.69
-14.81
-21.87
-30.00
-38.90
-47.94
-56.46
-64.07
-70.93
-77.66
-85.22
-94.61
-106.58
-121.27
-137.94
-154.64
-168.25
-175.00
-171.45
-155.64
-127.94
-91.13
-49.71
-8.65
27.94
57.47
78.98
92.63
99.23
99.75
95.29
87.20
77.19
67.21
59.18
54.51
53.84
56.86
62.56
69.66
76.99
83.71
89.34
93.50
95.72
95.45
92.27
86.15
77.57
67.52
57.16
47.38
38.59
30.66
23.06
15.27
6.99
-1.64
-10.22
-18.22
-25.34
-31.69
-37.78
-44.33
-51.95
-60.81
-70.57
-80.51
-89.90
-98.30
-105.89
-113.43
-122.14
-133.31
-147.86
-165.74
-185.41
-203.76
-216.44
-218.94
-207.93
-182.46
-144.49
-98.47
-50.05
-4.61
33.98
63.77
84.53
97.14
102.91
103.27
99.75
93.98
87.69
82.48
79.52
79.29
81.57
85.62
90.52
95.59
100.47
105.10
109.44
113.23
115.88
116.52
114.40
109.18
101.14
91.19
80.54
70.32
61.21
53.21
45.86
38.48
30.60
22.16
13.55
5.35
-1.99
-8.41
-14.30
-20.38
-27.39
-35.83
-45.66
-56.35
-67.04
-76.92
-85.60
-93.38
-101.20
-110.49
-122.52
-137.85
-155.81
-174.21
-189.54
-197.61
-194.71
-178.68
-149.76
-110.71
-66.15
-21.38
19.02
51.97
76.17
91.69
99.43
100.54
96.32
88.32
78.42
68.73
61.22
57.33
57.59
61.60
68.23
75.98
83.51
89.86
94.59
97.66
99.14
99.03
97.08
92.96
86.42
77.61
67.13
55.92
45.00
35.15
26.66
19.29
12.49
5.56
-2.00
-10.37
-19.30
-28.28
-36.77
-44.46
-51.44
-58.18
-65.43
-74.05
-84.78
-98.02
-113.56
-130.33
-146.13
-157.87
-162.10
-156.00
-138.35
-110.08
-74.16
-34.89
3.27
36.68
63.07
81.55
92.30
96.05
93.82
86.84
76.60
64.89
53.68
44.82
39.64
38.69
41.62
47.41
54.58
61.65
67.32
70.72
71.35
69.18
64.45
57.62
49.16
39.42
28.66
17.01
4.63
-8.19
-21.07
-33.52
-45.08
-55.48
-64.72
-73.12
-81.40
-90.60
-101.87
-116.05
-133.11
-151.66
-168.75
-180.38
-182.43
-171.96
-148.27
-113.33
-71.26
-27.27
13.73
48.15
74.19
91.58
101.08
103.89
101.42
95.15
86.74
77.92
70.31
65.08
62.74
63.10
65.54
69.29
73.64
77.99
81.80
84.39
85.01
82.91
77.63
69.19
58.21
45.77
33.05
20.94
9.73
-0.95
-11.84
-23.60
-36.39
-49.76
-62.84
-74.76
-85.12
-94.22
-103.03
-112.94
-125.37
-141.22
-160.28
-180.84
-199.48
-211.64
-212.71
-199.56
-171.74
-131.90
-85.08
-37.29
6.18
41.95
68.82
87.34
98.94
105.24
107.64
107.34
105.44
103.03
101.09
100.34
101.07
103.12
106.06
109.31
112.43
115.10
117.16
118.52
119.04
118.46
116.48
112.73
107.00
99.28
89.87
79.34
68.36
57.54
47.24
37.57
28.40
19.47
10.50
1.22
-8.55
-18.90
-29.75
-40.82
-51.68
-61.95
-71.48
-80.54
-89.89
-100.65
-113.98
-130.63
-150.32
-171.38
-190.55
-203.62
-206.31
-195.75
-171.45
-135.75
-93.20
-49.25
-8.74
25.12
51.14
69.65
81.85
89.04
92.40
92.96
91.79
90.01
88.71
88.68
90.15
92.92
96.42
100.08
103.54
106.65
109.43
111.80
113.48
113.97
112.72
109.43
104.20
97.52
90.03
82.26
74.44
66.48
58.14
49.32
40.11
30.85
21.99
13.86
6.55
-0.17
-6.74
-13.77
-21.68
-30.70
-40.62
-50.91
-60.91
-70.15
-78.57
-86.70
-95.45
-105.81
-118.44
-133.15
-148.59
-162.22
-170.68
-170.64
-159.80
-137.80
-106.47
-69.49
-31.29
4.04
33.62
56.02
71.02
79.08
80.98
77.73
70.63
61.40
52.04
44.54
40.38
40.14
43.42
49.03
55.55
61.76
66.90
70.70
73.04
73.75
72.43
68.67
62.30
53.63
43.50
33.00
23.15
14.52
7.07
0.20
-6.84
-14.67
-23.42
-32.75
-41.95
-50.36
-57.61
-63.91
-69.99
-76.90
-85.70
-96.98
-110.51
-124.91
-137.71
-145.69
-145.71
-135.66
-115.25
-86.27
-52.18
-17.16
15.05
41.79
61.85
75.08
81.94
83.17
79.66
72.61
63.55
54.27
46.49
41.46
39.73
41.13
44.93
50.13
55.71
60.70
64.29
65.84
64.89
61.30
55.22
47.13
37.68
27.57
17.34
7.28
-2.66
-12.66
-22.92
-33.44
-43.96
-54.06
-63.35
-71.75
-79.59
-87.70
-97.17
-109.05
-123.82
-140.83
-158.02
-171.95
-178.58
-174.47
-157.94
-129.86
-93.49
-53.59
-14.98
18.62
45.24
64.57
77.41
84.96
88.39
88.69
86.80
83.70
80.41
77.90
76.81
77.36
79.23
81.85
84.58
87.01
89.00
90.57
91.73
92.26
91.67
89.37
84.80
77.74
68.40
57.49
46.10
35.37
26.14
18.63
12.33
6.20
-0.87
-9.64
-20.17
-31.86
-43.72
-54.82
-64.59
-73.08
-80.92
-89.22
-99.25
-112.13
-128.20
-146.60
-164.98
-179.73
-186.73
-182.58
-165.68
-136.96
-99.67
-58.57
-18.60
16.36
44.14
64.33
77.75
85.76
89.67
90.58
89.45
87.23
84.93
83.45
83.39
84.85
87.49
90.71
93.96
96.94
99.58
101.92
103.93
105.30
105.54
104.14
100.74
95.38
88.48
80.74
72.92
65.61
59.09
53.34
48.04
42.81
37.38
31.67
25.90
20.46
15.71
11.73
8.27
4.73
0.41
-5.13
-11.90
-19.44
-27.06
-34.11
-40.29
-45.81
-51.23
-57.22
-64.27
-72.46
-81.45
-90.62
-99.28
-107.01
-113.78
-120.10
-126.92
-135.38
-146.39
-160.14
-175.60
-190.35
-200.88
-203.42
-194.97
-174.37
-142.80
-103.57
-61.24
-20.46
15.03
43.03
62.87
75.06
80.77
81.37
78.26
72.81
66.48
60.78
57.08
56.38
58.92
64.19
71.06
78.22
84.68
89.92
93.80
96.40
97.66
97.30
95.03
90.69
84.45
76.82
68.49
60.20
52.47
45.60
39.59
34.15
28.82
23.07
16.61
9.44
2.02
-5.01
-11.14
-16.34
-21.12
-26.32
-32.79
-40.89
-50.34
-60.33
-69.91
-78.43
-85.74
-92.32
-99.07
-107.08
-117.31
-130.15
-145.13
-160.59
-173.70
-180.91
-178.80
-165.10
-139.65
-104.57
-63.91
-22.54
14.99
45.55
67.74
81.71
88.63
90.00
87.31
81.93
75.23
68.60
63.41
60.69
60.89
63.75
68.45
73.98
79.41
84.19
88.10
91.09
93.11
93.96
93.29
90.76
86.19
79.67
71.64
62.83
54.01
45.88
38.82
32.81
27.52
22.44
17.07
11.14
4.68
-2.05
-8.65
-14.80
-20.39
-25.60
-30.89
-36.78
-43.71
-51.85
-60.97
-70.49
-79.72
-88.07
-95.32
-101.82
-108.47
-116.46
-126.93
-140.36
-156.08
-172.10
-185.20
-191.58
-187.89
-172.21
-144.79
-108.18
-66.54
-24.61
13.39
44.59
67.70
82.74
90.60
92.51
89.86
84.09
76.70
69.26
63.20
59.63
59.09
61.48
66.15
72.13
78.47
84.44
89.58
93.65
96.40
97.49
96.53
93.32
87.97
80.99
73.13
65.12
57.45
50.32
43.71
37.52
31.65
25.92
20.15
14.17
7.86
1.35
-5.05
-10.98
-16.18
-20.74
-25.09
-29.93
-35.87
-43.25
-51.95
-61.40
-70.77
-79.29
-86.59
-92.89
-98.98
-106.08
-115.34
-127.47
-142.21
-158.07
-172.36
-181.56
-182.15
-171.53
-148.96
-115.87
-75.70
-33.08
7.39
42.03
68.67
86.63
96.38
99.01
95.94
88.81
79.41
69.64
61.32
55.86
54.00
55.72
60.30
66.66
73.65
80.33
86.12
90.67
93.78
95.18
94.48
91.37
85.72
77.84
68.46
58.59
49.18
40.78
33.41
26.66
19.94
12.85
5.39
-2.10
-9.11
-15.28
-20.64
-25.69
-31.13
-37.66
-45.58
-54.70
-64.37
-73.80
-82.33
-89.71
-96.34
-103.13
-111.36
-122.23
-136.38
-153.22
-170.68
-185.24
-192.66
-189.14
-172.55
-143.21
-103.95
-59.39
-14.72
25.55
58.42
82.63
98.32
106.51
108.52
105.71
99.51
91.46
83.23
76.44
72.32
71.42
73.52
77.82
83.26
89.00
94.50
99.54
103.97
107.49
109.59
109.62
107.00
101.45
93.24
83.19
72.52
62.47
53.96
47.17
41.58
36.25
30.23
23.02
14.65
5.74
-2.95
-10.73
-17.41
-23.20
-28.75
-34.77
-41.85
-50.13
-59.31
-68.77
-77.90
-86.38
-94.31
-102.19
-110.80
-120.96
-133.25
-147.80
-163.82
-179.30
-191.05
-195.24
-188.48
-169.03
-137.59
-97.33
-53.03
-9.73
28.50
59.22
81.59
95.88
102.88
103.61
99.27
91.41
81.92
72.81
65.86
62.23
62.23
65.41
70.86
77.48
84.37
90.84
96.42
100.68
103.19
103.56
101.48
96.92
90.23
82.06
73.25
64.58
56.56
49.30
42.53
35.85
28.88
21.53
13.98
6.62
-0.10
-5.95
-11.01
-15.77
-20.90
-27.06
-34.62
-43.45
-52.98
-62.38
-70.93
-78.33
-84.93
-91.68
-99.87
-110.65
-124.53
-140.83
-157.55
-171.48
-178.78
-175.97
-161.00
-133.93
-97.15
-54.82
-11.84
27.35
59.55
83.14
97.86
104.32
103.72
97.61
87.89
76.71
66.17
58.08
53.52
52.75
55.29
60.24
66.55
73.30
79.79
85.52
90.07
93.06
94.10
92.84
89.09
82.99
75.06
66.12
56.96
48.14
39.83
31.85
23.88
15.81
7.74
-0.01
-7.08
-13.22
-18.51
-23.31
-28.27
-34.14
-41.48
-50.35
-60.28
-70.35
-79.55
-87.29
-93.69
-99.67
-106.67
-116.17
-129.15
-145.48
-163.57
-180.38
-191.82
-193.73
-183.07
-158.96
-123.20
-79.89
-34.32
8.38
44.34
71.55
89.68
99.52
102.43
99.96
93.66
85.22
76.37
68.77
63.76
62.08
63.67
67.89
73.70
80.08
86.25
91.76
96.38
99.88
101.86
101.75
99.04
93.49
85.38
75.58
65.27
55.56
47.14
40.04
33.77
27.58
20.91
13.58
5.94
-1.42
-7.96
-13.49
-18.31
-23.13
-28.75
-35.74
-44.17
-53.61
-63.31
-72.54
-80.88
-88.47
-96.01
-104.60
-115.37
-129.01
-145.27
-162.57
-178.00
-187.83
-188.38
-177.09
-153.39
-119.05
-77.78
-34.35
6.59
41.45
68.22
86.39
96.60
100.08
98.29
92.70
84.84
76.29
68.63
63.21
60.92
61.95
65.83
71.60
78.19
84.63
90.25
94.67
97.61
98.78
97.83
94.43
88.50
80.40
71.00
61.52
53.04
46.17
40.77
36.07
31.07
25.06
17.97
10.36
3.10
-3.12
-8.19
-12.61
-17.22
-22.79
-29.71
-37.81
-46.53
-55.17
-63.24
-70.60
-77.51
-84.58
-92.61
-102.41
-114.47
-128.61
-143.60
-157.04
-165.69
-166.21
-156.21
-135.09
-104.39
-67.44
-28.51
8.27
39.73
64.02
80.55
89.58
91.92
88.72
81.32
71.38
60.73
51.25
44.55
41.65
42.85
47.64
54.93
63.35
71.55
78.45
83.36
85.90
85.99
83.66
79.08
72.49
64.24
54.81
44.79
34.79
25.32
16.70
8.99
1.98
-4.72
-11.55
-18.86
-26.78
-35.18
-43.73
-52.03
-59.79
-66.94
-73.68
-80.45
-87.87
-96.69
-107.60
-120.97
-136.40
-152.39
-166.25
-174.44
-173.53
-161.20
-137.17
-103.49
-64.01
-23.40
14.06
45.35
68.99
84.80
93.37
95.65
92.75
85.94
76.86
67.40
59.46
54.61
53.56
56.15
61.47
68.30
75.51
82.29
88.17
92.79
95.76
96.59
94.78
90.11
82.77
73.50
63.38
53.57
44.92
37.70
31.57
25.75
19.40
12.02
3.69
-4.99
-13.17
-20.22
-26.04
-31.15
-36.45
-42.83
-50.76
-60.04
-70.02
-79.86
-88.97
-97.29
-105.33
-114.06
-124.59
-137.73
-153.56
-171.03
-187.76
-200.26
-204.58
-197.38
-177.11
-144.65
-103.34
-58.11
-14.20
24.13
54.40
75.91
89.32
95.93
97.24
94.63
89.53
83.45
77.93
74.32
73.47
75.56
80.07
86.05
92.49
98.56
103.82
108.10
111.36
113.39
113.86
112.34
108.49
102.32
94.22
84.94
75.42
66.49
58.65
52.04
46.33
41.00
35.55
29.68
23.44
17.16
11.20
5.77
0.83
-3.94
-9.03
-14.91
-21.92
-30.20
-39.60
-49.79
-60.16
-70.07
-79.04
-86.93
-94.15
-101.57
-110.40
-121.71
-136.06
-152.90
-170.33
-185.16
-193.40
-191.28
-176.47
-148.94
-111.19
-67.67
-23.58
16.42
49.14
73.22
88.76
96.76
98.57
95.62
89.41
81.52
73.65
67.36
63.80
63.45
66.06
70.87
76.94
83.45
89.86
95.85
101.02
104.77
106.35
105.01
100.44
92.88
83.18
72.57
62.17
52.75
44.53
37.20
30.27
23.31
16.15
8.97
2.06
-4.41
-10.52
-16.65
-23.28
-30.79
-39.10
-47.84
-56.42
-64.35
-71.48
-78.18
-85.19
-93.55
-104.20
-117.62
-133.35
-149.73
-163.86
-172.12
-171.04
-158.46
-134.22
-100.45
-60.99
-20.45
16.95
48.16
71.63
87.08
95.09
96.61
92.69
84.53
73.65
61.94
51.55
44.40
41.71
43.59
49.03
56.43
64.15
71.03
76.55
80.58
82.99
83.33
80.97
75.33
66.38
54.81
41.95
29.29
18.03
8.60
0.62
-6.86
-14.85
-23.97
-34.19
-44.94
-55.33
-64.61
-72.49
-79.29
-85.85
-93.36
-103.04
-115.68
-131.28
-148.57
-164.94
-176.75
-180.17
-172.17
-151.68
-119.99
-80.54
-38.04
2.74
38.02
65.56
84.62
95.59
99.52
97.74
91.79
83.38
74.34
66.50
61.37
59.83
61.89
66.76
73.11
79.48
84.74
88.28
90.01
90.14
88.87
86.16
81.70
75.13
66.24
55.26
42.90
30.17
18.12
7.44
-1.72
-9.80
-17.67
-26.17
-35.84
-46.67
-58.09
-69.25
-79.41
-88.21
-95.95
-103.55
-112.31
-123.55
-138.16
-156.06
-175.96
-195.19
-209.99
-216.20
-210.30
-190.48
-157.51
-114.74
-67.40
-21.23
19.01
50.55
72.86
87.06
95.08
98.74
99.40
98.09
95.70
93.20
91.58
91.51
93.17
96.25
100.13
104.15
107.92
111.23
113.94
115.76
116.18
114.56
110.48
103.92
95.37
85.66
75.65
65.87
56.38
46.87
36.97
26.58
15.98
5.76
-3.55
-11.81
-19.46
-27.20
-35.76
-45.46
-56.12
-67.14
-77.86
-87.93
-97.44
-107.00
-117.47
-129.87
-145.00
-163.03
-183.17
-203.17
-219.43
-227.59
-223.62
-205.17
-172.63
-129.30
-80.58
-32.48
9.96
43.79
68.38
84.79
94.81
100.21
102.25
101.91
100.05
97.68
95.85
95.38
96.61
99.38
103.11
107.14
111.00
114.49
117.57
120.19
122.07
122.66
121.22
117.13
110.19
100.80
89.91
78.76
68.43
59.44
51.62
44.24
36.43
27.63
17.83
7.64
-2.06
-10.44
-17.17
-22.55
-27.51
-33.15
-40.37
-49.51
-60.20
-71.55
-82.52
-92.40
-101.06
-109.05
-117.48
-127.75
-141.08
-158.02
-177.84
-198.15
-215.06
-223.84
-220.23
-201.83
-169.05
-125.18
-75.50
-25.82
18.92
55.59
83.00
101.49
112.24
116.80
116.78
113.76
109.26
104.73
101.36
99.88
100.50
102.97
106.67
110.90
115.01
118.59
121.35
123.12
123.68
122.78
120.10
115.38
108.56
99.81
89.52
78.21
66.39
54.52
42.95
32.00
21.93
12.97
5.17
-1.70
-8.15
-14.84
-22.28
-30.63
-39.66
-48.90
-57.90
-66.54
-75.24
-84.78
-96.15
-110.18
-127.05
-145.90
-164.62
-179.88
-187.81
-184.99
-169.46
-141.54
-103.81
-60.55
-16.61
23.66
57.06
81.91
97.78
105.27
105.54
100.28
91.44
81.14
71.44
64.12
60.29
60.26
63.55
69.08
75.55
81.81
87.05
90.81
92.75
92.55
89.85
84.43
76.40
66.23
54.73
42.73
30.86
19.43
8.38
-2.54
-13.61
-24.95
-36.48
-47.80
-58.43
-67.99
-76.52
-84.62
-93.49
-104.57
-119.01
-137.00
-157.23
-176.76
-191.42
-196.74
-189.23
-167.62
-133.37
-90.48
-44.37
-0.45
37.18
66.41
86.92
99.60
105.77
106.77
103.85
98.28
91.50
85.02
80.22
77.97
78.48
81.26
85.35
89.71
93.55
96.57
98.80
100.32
100.89
99.83
96.18
89.19
78.76
65.65
51.32
37.43
25.18
15.04
6.62
-1.04
-8.99
-17.98
-28.23
-39.36
-50.67
-61.42
-71.21
-80.13
-88.85
-98.34
-109.72
-123.82
-140.79
-159.59
-177.79
-191.65
-196.90
-189.96
-169.27
-136.05
-94.16
-48.99
-5.89
31.14
60.09
80.75
93.99
101.07
103.25
101.76
97.94
93.25
89.11
86.71
86.68
88.93
92.84
97.48
102.00
105.82
108.79
110.96
112.39
112.91
112.10
109.53
104.96
98.52
90.72
82.22
73.59
65.20
57.18
49.52
42.28
35.55
29.43
23.98
19.05
14.37
9.53
4.18
-1.84
-8.44
-15.31
-22.09
-28.59
-34.96
-41.61
-49.05
-57.64
-67.35
-77.74
-88.15
-97.95
-106.75
-114.63
-122.14
-130.27
-140.17
-152.79
-168.28
-185.53
-201.97
-213.81
-216.92
-208.05
-185.95
-152.01
-109.96
-64.95
-22.16
14.44
42.80
62.67
75.08
81.60
83.75
82.85
80.07
76.54
73.39
71.59
71.78
74.02
77.94
82.88
88.10
93.01
97.20
100.42
102.53
103.39
102.85
100.80
97.18
92.10
85.86
78.95
71.90
65.15
58.96
53.33
48.03
42.84
37.54
32.03
26.27
20.30
14.20
8.14
2.30
-3.18
-8.27
-13.16
-18.20
-23.88
-30.60
-38.57
-47.64
-57.36
-67.02
-75.88
-83.46
-89.83
-95.64
-102.02
-110.22
-121.14
-134.87
-150.36
-165.42
-176.97
-181.59
-176.43
-160.09
-133.22
-98.55
-60.30
-23.04
9.46
34.94
52.82
63.68
68.66
68.99
65.79
60.16
53.34
46.66
41.46
38.74
38.96
41.95
47.05
53.34
59.89
65.99
71.16
75.07
77.41
77.85
76.07
71.95
65.69
57.85
49.22
40.55
32.40
25.02
18.41
12.43
6.96
1.86
-3.02
-7.90
-13.08
-18.89
-25.55
-33.02
-41.02
-49.04
-56.55
-63.24
-69.24
-75.15
-81.94
-90.64
-101.86
-115.35
-129.73
-142.49
-150.47
-150.53
-140.51
-119.99
-90.57
-55.60
-19.39
13.91
41.27
61.20
73.66
79.57
80.18
76.78
70.51
62.56
54.23
46.94
41.94
40.08
41.50
45.71
51.76
58.49
64.84
69.97
73.31
74.54
73.56
70.49
65.59
59.19
51.67
43.36
34.56
25.58
16.72
8.32
0.64
-6.29
-12.62
-18.78
-25.27
-32.47
-40.55
-49.32
-58.36
-67.11
-75.13
-82.27
-88.75
-95.28
-102.85
-112.51
-124.97
-140.14
-156.75
-172.25
-183.19
-185.91
-177.64
-157.31
-126.16
-87.50
-45.93
-6.15
28.07
54.52
72.67
83.19
87.44
86.98
83.35
78.08
72.59
68.17
65.72
65.59
67.59
71.09
75.36
79.79
84.02
87.91
91.42
94.37
96.39
96.88
95.23
91.02
84.29
75.60
65.88
56.14
47.09
38.92
31.34
23.90
16.28
8.49
0.89
-6.12
-12.35
-18.03
-23.75
-30.27
-38.11
-47.42
-57.74
-68.26
-78.10
-86.70
-94.14
-101.19
-109.10
-119.20
-132.42
-148.67
-166.57
-183.38
-195.36
-198.53
-189.81
-167.99
-134.38
-92.65
-47.91
-5.40
30.81
58.53
77.45
88.60
93.62
94.15
91.66
87.41
82.61
78.40
75.71
75.08
76.53
79.68
83.92
88.57
93.17
97.41
101.13
104.18
106.26
106.92
105.64
102.04
96.03
88.00
78.71
69.11
60.04
51.93
44.74
38.04
31.29
24.10
16.44
8.61
1.10
-5.66
-11.51
-16.66
-21.72
-27.38
-34.25
-42.62
-52.31
-62.71
-73.01
-82.50
-90.88
-98.43
-106.00
-114.82
-126.01
-140.12
-156.64
-173.65
-187.94
-195.58
-192.88
-177.57
-149.59
-111.47
-67.68
-23.48
16.45
49.05
73.13
89.05
97.94
101.13
99.84
95.26
88.75
81.88
76.25
73.10
73.01
75.81
80.79
86.95
93.35
99.29
104.37
108.39
111.19
112.56
112.14
109.54
104.53
97.25
88.30
78.66
69.36
61.19
54.38
48.65
43.29
37.54
30.86
23.16
14.79
6.44
-1.20
-7.69
-13.06
-17.84
-22.88
-29.01
-36.67
-45.81
-55.86
-65.99
-75.48
-83.87
-91.19
-97.89
-104.89
-113.34
-124.31
-138.32
-154.69
-171.25
-184.46
-190.13
-184.69
-166.34
-135.81
-96.26
-52.45
-9.45
28.50
58.74
80.26
93.31
98.89
98.27
92.90
84.39
74.58
65.30
58.22
54.40
54.13
56.98
62.08
68.42
75.15
81.68
87.60
92.55
96.13
97.82
97.12
93.71
87.64
79.41
69.87
59.91
50.29
41.34
33.05
25.28
17.92
11.03
4.74
-0.88
-6.07
-11.27
-17.01
-23.68
-31.32
-39.56
-47.80
-55.36
-61.83
-67.32
-72.55
-78.70
-87.10
-98.53
-112.76
-128.19
-141.97
-150.55
-150.65
-140.11
-118.56
-87.65
-50.62
-11.60
25.31
56.77
80.67
96.17
103.49
103.56
97.77
87.81
75.54
62.86
51.63
43.37
39.00
38.78
42.24
48.34
55.75
63.15
69.42
73.85
76.10
76.08
73.79
69.32
62.76
54.36
44.55
33.94
23.20
12.88
3.36
-5.17
-12.75
-19.62
-26.14
-32.79
-40.06
-48.21
-57.20
-66.60
-75.84
-84.37
-91.95
-98.75
-105.40
-112.86
-122.20
-134.27
-149.16
-165.69
-181.22
-191.93
-193.71
-183.41
-159.98
-124.95
-82.18
-36.79
6.13
42.67
70.59
89.34
99.57
102.62
100.13
93.82
85.46
76.73
69.16
63.89
61.50
62.01
64.92
69.44
74.79
80.32
85.56
90.17
93.82
96.09
96.48
94.53
89.99
83.03
74.22
64.44
54.60
45.37
36.94
29.13
21.52
13.78
5.89
-1.92
-9.27
-15.95
-22.04
-27.98
-34.34
-41.67
-50.21
-59.82
-69.99
-80.01
-89.26
-97.39
-104.65
-111.86
-120.30
-131.29
-145.50
-162.39
-179.84
-194.33
-201.66
-198.04
-181.32
-151.74
-112.07
-66.90
-21.49
19.50
52.90
77.32
92.88
100.69
102.23
99.12
92.93
85.27
77.68
71.54
67.87
67.14
69.27
73.71
79.65
86.23
92.73
98.63
103.54
107.14
109.00
108.65
105.69
100.01
91.92
82.22
72.00
62.31
53.84
46.67
40.39
34.26
27.65
20.29
12.34
4.31
-3.23
-9.97
-15.96
-21.70
-27.80
-34.81
-42.96
-52.06
-61.66
-71.20
-80.29
-88.78
-96.92
-105.26
-114.60
-125.83
-139.53
-155.62
-172.87
-188.74
-199.58
-201.47
-191.32
-167.96
-132.71
-89.20
-42.49
2.27
40.87
70.75
91.02
102.22
105.77
103.56
97.60
89.84
81.99
75.42
71.12
69.59
70.84
74.41
79.54
85.38
91.19
96.52
101.14
104.87
107.35
108.04
106.32
101.79
94.61
85.48
75.53
65.85
57.16
49.52
42.53
35.52
28.01
19.96
11.73
3.93
-2.94
-8.87
-14.30
-20.01
-26.70
-34.78
-44.08
-54.01
-63.80
-72.82
-80.86
-88.21
-95.67
-104.37
-115.47
-129.65
-146.60
-164.59
-180.52
-190.42
-190.46
-178.08
-152.87
-116.86
-74.03
-29.38
12.28
47.28
73.58
90.71
99.42
101.14
97.56
90.40
81.36
72.11
64.21
58.93
57.00
58.48
62.83
69.07
76.17
83.14
89.25
93.96
96.87
97.68
96.22
92.45
86.48
78.58
69.21
58.92
48.39
38.25
29.01
20.88
13.79
7.38
1.18
-5.28
-12.32
-19.95
-27.99
-36.05
-43.75
-50.83
-57.28
-63.39
-69.76
-77.18
-86.49
-98.29
-112.47
-127.92
-142.31
-152.44
-154.92
-147.14
-128.19
-99.23
-63.31
-24.55
12.84
45.36
70.77
88.07
97.33
99.30
95.26
86.75
75.53
63.50
52.52
44.19
39.65
39.25
42.54
48.41
55.43
62.30
68.11
72.40
74.96
75.54
73.70
68.97
61.13
50.50
38.00
25.00
12.77
2.07
-7.06
-15.28
-23.49
-32.46
-42.40
-52.92
-63.21
-72.55
-80.59
-87.65
-94.63
-102.77
-113.31
-127.00
-143.72
-162.04
-179.18
-191.27
-194.24
-185.00
-162.53
-128.38
-86.42
-41.75
0.65
37.04
65.38
85.25
97.24
102.46
102.17
97.70
90.48
82.14
74.36
68.70
66.21
67.18
71.10
76.84
83.08
88.70
93.08
95.97
97.41
97.40
95.80
92.29
86.58
78.52
68.34
56.65
44.35
32.41
21.60
12.10
3.53
-4.87
-13.91
-23.98
-34.86
-45.88
-56.23
-65.40
-73.39
-80.73
-88.34
-97.38
-108.94
-123.76
-141.76
-161.61
-180.50
-194.46
-199.18
-191.26
-169.43
-135.15
-92.33
-46.38
-2.71
34.59
63.45
83.66
96.30
102.89
104.76
103.05
98.81
93.31
88.01
84.19
82.67
83.58
86.41
90.43
95.02
99.76
104.46
108.89
112.62
114.99
115.23
112.68
107.00
98.41
87.77
76.37
65.62
56.52
49.30
43.40
37.74
31.33
23.72
15.10
6.15
-2.38
-10.03
-16.89
-23.49
-30.55
-38.67
-48.07
-58.45
-69.13
-79.27
-88.33
-96.38
-104.16
-112.92
-124.03
-138.46
-156.19
-175.90
-194.76
-208.72
-213.36
-205.03
-182.19
-146.12
-100.81
-51.93
-5.27
34.68
65.53
86.91
99.85
105.95
106.82
103.88
98.37
91.61
85.00
79.95
77.56
78.39
82.25
88.30
95.38
102.35
108.43
113.21
116.45
117.94
117.37
114.50
109.31
102.24
93.99
85.38
77.05
69.29
62.08
55.23
48.52
41.78
35.05
28.43
22.08
16.09
10.44
4.92
-0.67
-6.48
-12.56
-18.87
-25.50
-32.69
-40.80
-50.07
-60.38
-71.16
-81.59
-90.92
-98.79
-105.48
-111.78
-118.81
-127.83
-139.89
-155.44
-173.79
-192.83
-208.89
-217.45
-214.27
-196.73
-164.92
-121.79
-72.52
-23.20
20.80
55.89
80.71
95.76
102.74
103.66
100.39
94.56
87.60
80.93
75.87
73.40
73.81
76.74
81.29
86.41
91.36
95.80
99.67
102.95
105.47
106.78
106.37
103.73
98.61
91.15
81.86
71.63
61.49
52.37
44.86
39.01
34.37
30.18
25.68
20.33
14.01
7.02
-0.08
-6.67
-12.36
-17.13
-21.35
-25.71
-30.93
-37.49
-45.46
-54.56
-64.22
-73.83
-82.89
-91.13
-98.65
-105.99
-114.08
-123.98
-136.32
-150.74
-165.45
-177.36
-182.70
-178.07
-161.53
-133.35
-96.03
-53.74
-11.23
27.23
58.60
81.40
95.45
101.39
100.33
93.64
83.00
70.41
58.12
48.26
42.42
41.28
44.53
51.13
59.63
68.60
76.83
83.42
87.78
89.55
88.66
85.23
79.61
72.26
63.73
54.47
44.85
35.07
25.25
15.52
6.10
-2.73
-10.73
-17.89
-24.47
-30.96
-37.85
-45.42
-53.54
-61.83
-69.83
-77.25
-84.12
-90.91
-98.41
-107.54
-119.11
-133.39
-149.60
-165.65
-178.19
-183.37
-177.78
-159.67
-129.65
-90.69
-47.35
-4.62
33.20
63.32
84.54
96.98
101.62
99.82
93.12
83.23
71.99
61.29
52.86
47.94
47.03
49.85
55.46
62.56
69.87
76.32
81.27
84.37
85.46
84.51
81.48
76.36
69.19
60.16
49.62
38.12
26.39
15.10
4.78
-4.39
-12.66
-20.61
-28.91
-38.00
-47.91
-58.19
-68.10
-76.99
-84.63
-91.39
-98.15
-106.14
-116.48
-129.91
-146.33
-164.53
-182.05
-195.34
-200.36
-193.65
-173.37
-140.19
-97.39
-50.14
-4.11
35.89
66.96
88.33
100.83
106.08
105.81
101.55
94.66
86.54
78.64
72.44
69.01
68.87
71.79
77.00
83.40
89.94
95.81
100.49
103.71
105.26
104.93
102.51
97.85
90.99
82.20
71.98
60.93
49.64
38.54
27.97
18.11
9.02
0.64
-7.28
-15.11
-23.24
-31.99
-41.39
-51.26
-61.17
-70.68
-79.56
-87.91
-96.34
-105.84
-117.58
-132.42
-150.29
-169.77
-187.80
-200.22
-202.62
-191.76
-166.64
-129.12
-83.56
-35.63
9.13
46.66
74.91
93.72
104.20
107.91
106.40
101.15
93.58
85.22
77.68
72.28
69.90
70.68
74.20
79.61
85.96
92.40
98.24
102.91
105.93
106.90
105.54
101.77
95.66
87.59
78.01
67.52
56.68
46.01
35.85
26.46
17.91
10.11
2.78
-4.56
-12.40
-21.11
-30.78
-41.08
-51.41
-61.12
-69.82
-77.64
-85.28
-93.92
-104.86
-119.11
-136.81
-156.78
-176.26
-191.22
-197.19
-190.56
-169.84
-136.38
-94.16
-48.64
-5.34
31.58
59.90
79.22
90.27
94.27
92.48
86.20
76.97
66.67
57.38
50.98
48.65
50.60
56.02
63.48
71.48
78.90
85.22
90.32
94.17
96.45
96.45
93.37
86.73
76.72
64.32
51.05
38.44
27.51
18.54
10.98
3.84
-3.85
-12.67
-22.63
-33.22
-43.68
-53.33
-61.85
-69.49
-76.91
-85.17
-95.41
-108.58
-124.84
-143.16
-160.97
-174.41
-179.18
-171.79
-150.83
-117.68
-76.21
-31.76
10.39
46.25
73.69
92.35
102.95
106.66
104.78
98.68
89.99
80.57
72.42
67.23
65.98
68.72
74.62
82.33
90.38
97.54
103.02
106.42
107.62
106.62
103.52
98.45
91.71
83.68
74.82
65.49
55.97
46.32
36.55
26.72
17.06
7.88
-0.49
-7.99
-14.92
-21.96
-29.83
-38.97
-49.27
-60.12
-70.64
-80.21
-88.74
-96.82
-105.49
-115.97
-129.22
-145.54
-164.12
-182.75
-197.88
-205.12
-200.49
-181.72
-149.34
-106.79
-59.56
-13.62
26.21
57.18
78.71
91.77
98.01
99.15
96.70
92.11
86.78
82.14
79.41
79.33
82.00
86.92
93.19
99.79
105.90
110.96
114.69
116.96
117.72
116.92
114.52
110.55
105.17
98.66
91.41
83.91
76.57
69.47
62.39
54.92
46.81
38.26
29.96
22.78
17.26
13.26
9.93
6.23
1.43
-4.51
-11.07
-17.68
-24.10
-30.74
-38.23
-47.09
-57.19
-67.83
-77.98
-86.84
-94.23
-100.58
-107.09
-115.08
-125.78
-139.81
-156.80
-175.07
-191.56
-202.27
-203.16
-191.36
-166.27
-130.06
-87.20
-43.19
-3.08
29.77
54.06
70.15
79.30
82.94
82.34
78.68
73.31
67.75
63.53
61.79
63.00
66.86
72.50
78.85
84.96
90.27
94.54
97.72
99.74
100.38
99.36
96.48
91.81
85.74
78.91
71.98
65.39
59.32
53.71
48.41
43.29
38.29
33.35
28.34
23.14
17.66
11.96
6.26
0.84
-4.14
-8.74
-13.28
-18.18
-23.88
-30.66
-38.56
-47.36
-56.59
-65.58
-73.64
-80.29
-85.59
-90.22
-95.46
-102.80
-113.40
-127.38
-143.39
-158.62
-169.23
-171.37
-162.33
-141.48
-110.66
-73.71
-35.45
-0.37
28.37
49.36
62.71
69.49
71.05
68.72
63.77
57.44
51.04
45.82
42.76
42.34
44.48
48.56
53.74
59.15
64.09
68.20
71.29
73.27
74.01
73.31
70.97
66.92
61.28
54.49
47.19
40.05
33.61
28.13
23.52
19.40
15.26
10.61
5.18
-0.97
-7.50
-13.83
-19.44
-24.04
-27.75
-31.04
-34.59
-39.04
-44.68
-51.39
-58.62
-65.68
-72.06
-77.61
-82.73
-88.14
-94.79
-103.46
-114.55
-127.67
-141.43
-153.41
-160.47
-159.55
-148.62
-127.48
-98.03
-63.83
-29.10
2.40
28.19
47.32
59.98
66.98
69.28
67.79
63.45
57.38
50.97
45.61
42.49
42.22
44.76
49.44
55.24
61.19
66.58
71.06
74.51
76.85
77.95
77.52
75.36
71.44
66.04
59.72
53.16
46.92
41.35
36.46
31.99
27.51
22.64
17.25
11.45
5.68
0.48
-3.77
-7.09
-9.89
-12.87
-16.73
-21.89
-28.39
-35.89
-43.84
-51.69
-58.94
-65.34
-70.99
-76.44
-82.60
-90.51
-100.86
-113.49
-127.03
-138.85
-145.70
-144.55
-133.53
-112.67
-83.98
-50.99
-17.72
12.20
36.42
53.92
64.82
69.88
70.07
66.37
59.93
52.08
44.32
38.10
34.52
34.06
36.56
41.31
47.35
53.71
59.58
64.37
67.76
69.57
69.72
68.22
65.10
60.49
54.63
47.86
40.58
33.20
25.98
19.10
12.64
6.65
1.12
-4.05
-9.10
-14.38
-20.28
-27.01
-34.49
-42.30
-49.83
-56.59
-62.39
-67.60
-73.04
-79.82
-88.88
-100.62
-114.43
-128.46
-139.84
-145.23
-141.75
-128.00
-104.55
-73.93
-39.95
-6.65
22.66
45.94
62.41
72.21
75.99
74.67
69.39
61.53
52.73
44.66
38.79
36.06
36.77
40.49
46.33
53.13
59.76
65.32
69.24
71.24
71.32
69.61
66.30
61.57
55.57
48.41
40.26
31.33
22.03
12.87
4.34
-3.18
-9.63
-15.30
-20.74
-26.57
-33.21
-40.75
-48.87
-57.05
-64.78
-71.88
-78.54
-85.37
-93.20
-102.88
-115.03
-129.62
-145.68
-161.10
-172.75
-177.09
-171.20
-153.77
-125.66
-89.89
-50.74
-12.69
20.65
47.12
66.02
77.76
83.38
84.14
81.39
76.53
70.97
66.09
63.13
62.85
65.36
70.11
76.06
82.06
87.19
90.98
93.35
94.39
94.18
92.68
89.81
85.51
79.82
72.90
64.93
56.13
46.86
37.51
28.56
20.32
12.86
5.90
-1.03
-8.37
-16.40
-25.11
-34.26
-43.49
-52.46
-60.96
-68.98
-76.82
-85.09
-94.75
-106.76
-121.69
-139.08
-157.05
-172.38
-181.08
-179.51
-165.57
-139.50
-103.99
-63.45
-22.86
13.56
43.08
64.76
79.01
87.02
90.17
89.78
87.01
83.01
78.98
76.06
75.15
76.62
80.22
85.24
90.74
95.93
100.34
103.88
106.63
108.57
109.45
108.80
106.14
101.25
94.31
85.93
77.01
68.43
60.83
54.47
49.14
44.34
39.43
33.93
27.59
20.55
13.20
6.03
-0.59
-6.58
-12.21
-18.04
-24.70
-32.67
-42.05
-52.52
-63.38
-73.85
-83.29
-91.54
-99.03
-106.71
-115.82
-127.51
-142.34
-159.80
-177.90
-193.33
-201.90
-199.72
-184.40
-156.08
-117.62
-73.89
-30.40
8.20
39.10
61.50
76.07
84.13
87.06
86.13
82.59
77.90
73.61
71.10
71.21
73.97
78.81
84.76
90.90
96.62
101.64
105.90
109.36
111.78
112.74
111.74
108.50
103.17
96.32
88.84
81.60
75.12
69.44
64.20
58.96
53.38
47.52
41.64
36.06
30.92
26.06
21.12
15.76
9.82
3.44
-3.02
-9.18
-14.87
-20.22
-25.64
-31.72
-38.85
-47.14
-56.31
-65.83
-75.04
-83.54
-91.19
-98.29
-105.57
-113.93
-124.34
-137.32
-152.54
-168.49
-182.33
-190.42
-189.12
-176.02
-150.78
-115.51
-74.28
-32.05
6.62
38.55
62.25
77.75
85.99
88.29
85.98
80.41
73.05
65.55
59.59
56.54
57.16
61.36
68.27
76.57
84.88
92.17
97.92
101.99
104.42
105.20
104.17
101.10
95.90
88.80
80.38
71.49
62.98
55.42
48.96
43.33
37.97
32.31
25.96
18.86
11.29
3.75
-3.27
-9.47
-14.93
-20.12
-25.68
-32.26
-40.16
-49.29
-59.13
-69.01
-78.29
-86.69
-94.35
-101.86
-110.22
-120.47
-133.41
-149.01
-166.01
-181.76
-192.58
-194.61
-185.00
-162.93
-130.03
-90.04
-47.80
-7.94
26.10
52.53
71.09
82.48
87.84
88.36
85.27
79.86
73.58
67.94
64.22
63.24
65.14
69.43
75.25
81.71
88.10
94.02
99.18
103.29
105.92
106.57
104.91
100.98
95.22
88.36
81.03
73.70
66.49
59.39
52.39
45.62
39.31
33.67
28.78
24.44
20.30
15.93
10.99
5.41
-0.62
-6.76
-12.67
-18.21
-23.56
-29.22
-35.76
-43.60
-52.73
-62.64
-72.58
-81.80
-89.93
-97.14
-104.12
-111.91
-121.53
-133.73
-148.55
-165.05
-181.14
-193.65
-198.85
-193.45
-175.65
-145.91
-107.12
-63.89
-21.36
16.14
45.91
67.10
80.23
86.53
87.42
84.27
78.47
71.53
65.05
60.48
58.79
60.28
64.54
70.66
77.65
84.68
91.20
96.92
101.57
104.86
106.41
105.93
103.33
98.78
92.67
85.56
77.98
70.43
63.22
56.50
50.30
44.52
39.01
33.65
28.37
23.14
17.95
12.73
7.39
1.87
-3.79
-9.42
-14.92
-20.33
-25.96
-32.28
-39.74
-48.41
-57.96
-67.71
-76.90
-85.03
-92.09
-98.61
-105.50
-113.87
-124.58
-137.81
-152.70
-167.09
-177.81
-181.30
-174.63
-156.43
-127.47
-90.63
-50.16
-10.66
24.02
51.41
70.58
81.85
86.25
85.10
79.77
71.70
62.50
53.89
47.44
44.25
44.65
48.22
54.02
60.97
68.13
74.83
80.60
84.96
87.46
87.70
85.43
80.78
74.18
66.31
57.91
49.51
41.41
33.57
25.82
17.99
10.11
2.41
-4.80
-11.32
-17.24
-22.95
-28.95
-35.64
-43.16
-51.31
-59.72
-68.01
-75.93
-83.52
-91.11
-99.40
-109.24
-121.35
-135.83
-151.67
-166.52
-176.96
-179.34
-170.87
-150.61
-119.95
-82.26
-42.07
-3.81
29.06
54.64
72.44
82.97
87.26
86.48
81.83
74.66
66.48
58.87
53.29
50.70
51.40
55.01
60.63
67.24
73.95
80.12
85.38
89.40
91.80
92.13
90.00
85.32
78.44
70.08
61.16
52.46
44.39
36.92
29.74
22.51
15.07
7.55
0.30
-6.35
-12.27
-17.65
-23.06
-29.21
-36.71
-45.78
-56.04
-66.59
-76.40
-84.72
-91.58
-97.78
-104.79
-114.14
-126.92
-143.15
-161.50
-179.28
-192.67
-197.59
-190.65
-170.38
-137.80
-96.46
-51.53
-8.45
28.45
56.80
76.16
87.52
92.43
92.54
89.27
83.95
77.86
72.35
68.60
67.48
69.24
73.51
79.40
85.80
91.74
96.70
100.62
103.64
105.79
106.73
105.84
102.52
96.62
88.59
79.45
70.34
62.16
55.26
49.45
44.13
38.64
32.43
25.27
17.38
9.31
1.74
-4.83
-10.39
-15.50
-21.06
-27.92
-36.49
-46.55
-57.36
-68.04
-77.93
-86.80
-94.92
-102.97
-111.95
-122.89
-136.49
-152.68
-170.10
-185.93
-196.31
-197.18
-185.59
-160.84
-124.84
-81.74
-36.81
4.95
39.89
66.13
83.47
92.85
95.73
93.79
88.67
81.98
75.28
69.98
67.10
67.12
69.87
74.71
80.71
87.01
92.94
98.16
102.44
105.57
107.15
106.68
103.68
98.02
90.04
80.60
70.85
61.76
53.85
46.97
40.54
33.87
26.60
18.82
11.07
3.97
-2.13
-7.31
-12.11
-17.25
-23.32
-30.53
-38.69
-47.26
-55.62
-63.37
-70.47
-77.48
-85.29
-94.98
-107.35
-122.48
-139.43
-155.98
-168.99
-174.83
-170.44
-154.18
-126.56
-90.40
-50.10
-10.62
23.88
50.83
69.41
80.24
84.59
83.78
79.01
71.46
62.51
53.74
46.74
42.69
42.07
44.65
49.63
56.05
63.00
69.75
75.73
80.39
83.19
83.56
80.99
75.28
66.67
55.98
44.48
33.52
24.15
16.75
10.92
5.70
0.07
-6.60
-14.30
-22.50
-30.46
-37.63
-43.94
-49.77
-55.89
-63.14
-72.28
-83.69
-97.12
-111.43
-124.52
-133.59
-135.66
-128.41
-111.06
-84.75
-52.37
-17.84
14.85
42.59
63.60
77.32
84.08
84.65
80.01
71.38
60.28
48.51
38.04
30.55
27.11
27.91
32.32
39.09
46.70
53.72
58.98
61.69
61.51
58.45
52.88
45.33
36.38
26.46
15.81
4.59
-7.09
-19.00
-30.76
-41.96
-52.29
-61.63
-70.11
-78.18
-86.49
-95.90
-107.30
-121.24
-137.46
-154.42
-169.24
-178.10
-177.31
-164.52
-139.64
-105.08
-65.14
-24.82
11.46
40.79
62.00
75.40
82.17
83.89
82.04
78.03
73.09
68.36
64.79
63.09
63.53
65.98
69.82
74.26
78.49
81.88
84.01
84.61
83.47
80.35
75.14
67.91
59.01
48.94
38.17
26.91
15.15
2.76
-10.18
-23.26
-35.76
-46.98
-56.53
-64.60
-72.04
-80.11
-90.28
-103.64
-120.43
-139.56
-158.35
-172.94
-179.07
-173.36
-154.46
-123.69
-84.81
-42.99
-3.42
30.04
55.53
73.15
84.26
90.64
93.78
94.61
93.70
91.62
89.21
87.51
87.42
89.29
92.79
96.99
100.87
103.70
105.29
105.92
105.88
105.27
103.77
100.84
95.90
88.68
79.31
68.32
56.52
44.78
33.83
24.05
15.41
7.45
-0.55
-9.30
-19.25
-30.36
-42.14
-53.80
-64.52
-73.89
-82.00
-89.63
-98.00
-108.54
-122.41
-139.91
-160.02
-180.07
-196.05
-203.39
-198.35
-179.23
-147.18
-106.07
-61.41
-18.80
17.48
45.31
64.64
76.84
83.84
87.34
88.64
88.68
88.24
88.04
88.75
90.80
94.20
98.57
103.25
107.59
111.21
114.03
116.23
117.90
118.93
118.90
117.20
113.36
107.19
99.00
89.48
79.51
69.98
61.50
54.33
48.32
43.04
37.84
32.16
25.69
18.45
10.80
3.22
-3.91
-10.53
-16.91
-23.60
-31.17
-39.94
-49.89
-60.56
-71.22
-81.10
-89.76
-97.32
-104.58
-112.79
-123.31
-137.05
-153.94
-172.57
-190.15
-202.85
-206.58
-198.16
-176.35
-142.62
-100.89
-56.60
-15.11
19.60
45.77
63.58
74.33
79.56
80.48
77.98
73.06
67.01
61.43
57.90
57.50
60.40
66.00
73.11
80.50
87.12
92.36
95.97
97.90
98.04
96.29
92.48
86.63
79.02
70.22
60.93
51.79
43.20
35.39
28.36
22.09
16.40
11.00
5.45
-0.78
-8.05
-16.38
-25.38
-34.38
-42.75
-50.23
-57.11
-64.12
-72.28
-82.59
-95.67
-111.41
-128.63
-144.98
-157.07
-161.26
-154.64
-136.10
-106.90
-70.46
-31.42
5.57
37.02
61.04
77.20
86.02
88.42
85.50
78.56
69.25
59.49
51.27
46.14
44.85
47.25
52.33
58.67
64.92
70.09
73.72
75.78
76.37
75.52
72.98
68.33
61.20
51.58
40.01
27.55
15.51
4.94
-3.73
-10.82
-17.29
-24.28
-32.60
-42.39
-53.08
-63.65
-73.11
-81.01
-87.57
-93.78
-101.00
-110.62
-123.52
-139.64
-157.74
-175.21
-188.45
-193.48
-186.93
-167.20
-135.19
-94.36
-49.89
-7.28
29.05
56.72
75.43
86.29
91.02
91.23
88.31
83.49
78.12
73.60
71.14
71.38
74.25
79.01
84.54
89.67
93.55
95.82
96.59
96.24
95.18
93.57
91.18
87.50
81.93
74.13
64.20
52.70
40.45
28.39
17.28
7.55
-0.76
-8.06
-15.04
-22.45
-30.72
-39.88
-49.46
-58.91
-67.86
-76.32
-84.72
-93.84
-104.50
-117.44
-132.92
-150.36
-167.91
-182.45
-189.98
-186.73
-170.47
-141.50
-102.88
-59.55
-16.97
20.40
49.97
71.16
84.75
92.17
94.82
93.92
90.55
85.90
81.32
78.06
77.09
78.75
82.67
88.01
93.70
98.85
102.91
105.70
107.19
107.43
106.39
103.97
100.14
94.90
88.38
80.78
72.40
63.69
55.14
47.27
40.37
34.45
29.12
23.77
17.87
11.23
4.12
-2.88
-9.24
-14.73
-19.60
-24.56
-30.41
-37.71
-46.58
-56.59
-66.97
-76.88
-85.80
-93.70
-101.09
-108.88
-118.11
-129.71
-144.07
-160.74
-178.09
-193.27
-202.52
-202.05
-189.10
-163.07
-125.96
-82.07
-36.85
4.44
38.04
62.25
77.26
84.47
85.75
82.84
77.24
70.30
63.39
57.87
54.83
54.79
57.54
62.28
67.96
73.67
78.93
83.56
87.44
90.30
91.59
90.69
87.21
81.13
72.95
63.52
53.82
44.64
36.44
29.23
22.76
16.64
10.64
4.76
-0.83
-6.00
-10.91
-15.94
-21.67
-28.48
-36.34
-44.79
-53.14
-60.84
-67.78
-74.39
-81.53
-90.31
-101.58
-115.61
-131.58
-147.48
-160.22
-166.19
-162.26
-146.76
-120.12
-84.96
-45.41
-6.13
28.85
56.89
76.87
88.90
93.80
92.72
86.89
77.73
66.91
56.29
47.69
42.51
41.43
44.26
50.07
57.55
65.38
72.45
77.98
81.50
82.72
81.56
78.01
72.20
64.39
54.99
44.55
33.66
22.95
12.97
4.10
-3.57
-10.23
-16.36
-22.65
-29.71
-37.91
-47.17
-56.99
-66.59
-75.25
-82.61
-88.89
-94.93
-101.91
-111.10
-123.28
-138.40
-155.21
-171.22
-182.97
-186.67
-179.25
-159.27
-127.63
-87.57
-43.84
-1.53
35.16
63.72
83.41
94.80
99.17
97.95
92.66
84.87
76.23
68.43
62.86
60.37
61.05
64.37
69.40
75.16
80.84
85.84
89.85
92.60
