1629055025.00
64.000000
-0.00
-0.00
-0.00
-0.00
-0.00
-0.00
-0.00
-0.00
-0.00
-0.00
0.00
0.01
0.01
-0.00
-0.03
-0.05
-0.05
0.00
0.13
0.36
0.66
1.01
1.37
1.72
2.06
2.40
2.79
3.24
3.80
4.42
5.06
5.66
6.20
6.68
7.15
7.68
8.31
9.14
10.09
11.04
11.88
12.56
13.14
13.76
14.65
15.96
17.91
20.32
22.90
25.38
27.58
29.57
31.68
34.32
37.81
42.54
48.15
54.10
59.83
64.97
69.58
74.14
79.34
85.71
93.76
103.00
112.62
121.73
129.77
136.75
143.30
150.75
157.77
166.64
177.95
191.79
206.97
220.57
228.25
225.36
208.53
176.87
132.76
80.05
23.07
-34.94
-92.44
-149.16
-205.23
-260.37
-313.74
-363.87
-409.83
-450.91
-486.50
-515.74
-537.23
-549.22
-549.96
-538.37
-514.21
-478.67
-433.88
-382.45
-327.02
-269.84
-212.63
-156.66
-102.95
-52.37
-5.90
35.58
71.43
101.35
125.50
144.38
158.69
169.15
176.37
180.75
182.57
182.07
179.51
175.23
169.65
163.18
156.15
148.81
141.30
133.69
126.02
118.33
110.69
103.16
95.80
88.68
81.83
75.25
68.95
62.95
57.25
51.86
46.78
42.03
37.59
33.45
29.61
26.07
22.81
19.83
17.11
14.67
12.48
10.54
8.83
7.35
6.07
4.97
4.05
3.27
2.62
2.09
1.65
1.30
1.01
0.79
0.61
0.47
0.37
0.29
0.23
0.19
0.16
0.14
0.14
0.15
0.16
0.18
0.21
0.24
0.28
0.32
0.36
0.40
0.45
0.50
0.54
0.59
0.65
0.70
0.76
0.83
0.90
0.98
1.06
1.15
1.26
1.37
1.51
1.67
1.85
2.03
2.22
2.40
2.58
2.77
3.01
3.29
3.63
4.03
4.48
4.94
5.41
5.90
6.42
6.99
7.63
8.33
9.09
9.86
10.61
11.32
12.02
12.76
13.61
14.61
15.78
17.03
18.27
19.34
20.13
20.58
20.70
20.49
19.95
19.01
17.47
15.11
11.76
7.36
2.12
-3.56
-9.18
-14.31
-18.71
-22.43
-25.68
-28.75
-31.78
-34.66
-37.08
-38.69
-39.28
-38.93
-38.01
-37.01
-36.38
-36.38
-37.08
-38.43
-40.21
-41.91
-42.60
-41.15
-36.51
-28.31
-17.17
-4.59
7.41
17.09
23.51
26.66
27.09
25.53
22.46
18.25
13.39
8.79
5.85
6.11
10.61
19.31
31.00
43.61
54.90
63.40
68.56
71.05
72.10
72.80
73.54
73.94
73.18
70.57
66.02
60.01
53.65
48.25
44.76
43.50
44.14
45.83
47.57
49.72
52.13
54.66
57.02
58.74
59.09
57.32
52.83
45.48
35.70
24.25
12.25
0.83
-9.23
-17.72
-25.07
-32.19
-40.14
-49.87
-62.05
-76.64
-92.79
-108.88
-122.67
-131.76
-134.19
-129.09
-117.00
-99.76
-79.79
-59.39
-40.33
-23.61
-9.80
1.04
9.40
16.57
24.47
35.03
49.27
66.63
85.22
102.93
118.63
132.92
147.55
164.09
182.54
200.91
215.86
224.03
223.23
212.73
192.88
164.60
129.46
90.29
51.66
19.31
-1.52
-8.02
-1.21
14.58
33.71
51.81
67.38
81.66
97.08
115.16
135.37
155.20
171.33
181.09
183.12
177.36
164.51
145.49
121.34
93.28
62.87
31.91
2.14
-25.32
-50.27
-73.53
-96.75
-121.93
-150.64
-183.14
-217.68
-250.57
-276.96
-292.44
-294.69
-284.48
-265.35
-242.23
-219.58
-200.03
-184.25
-171.82
-162.47
-156.88
-156.41
-162.17
-173.95
-189.76
-206.15
-219.11
-225.13
-221.84
-208.52
-185.89
-156.02
-121.86
-86.73
-53.76
-25.34
-2.87
13.15
22.92
27.01
26.18
21.46
14.33
6.76
0.87
-1.47
0.72
7.23
16.78
27.56
37.92
46.84
54.10
59.95
64.56
67.60
68.12
64.81
56.63
43.30
25.63
5.32
-15.43
-34.51
-50.51
-62.90
-72.04
-78.97
-85.05
-91.67
-99.91
-110.30
-122.37
-134.56
-144.20
-148.11
-143.55
-129.20
-105.77
-75.92
-43.37
-11.82
16.06
39.02
56.93
70.27
79.57
85.23
87.70
87.62
85.92
83.59
81.43
79.74
78.22
76.29
73.32
69.05
63.69
57.81
51.95
46.33
40.61
34.01
25.62
14.87
1.86
-12.61
-27.28
-40.76
-51.99
-60.57
-66.90
-72.12
-77.75
-85.29
-95.53
-108.21
-121.65
-133.13
-139.48
-138.01
-127.41
-108.14
-82.38
-53.41
-24.60
1.43
23.31
40.87
54.69
65.44
73.55
79.12
82.28
83.42
83.29
82.81
82.70
83.17
83.93
84.40
83.97
82.27
79.21
74.99
70.07
65.01
60.37
56.40
52.92
49.29
44.77
38.82
31.39
23.00
14.40
6.19
-1.45
-8.84
-16.64
-25.66
-36.69
-50.41
-67.16
-86.60
-107.18
-126.14
-139.72
-144.16
-136.88
-117.53
-88.26
-53.18
-17.11
15.83
43.23
64.58
80.73
93.05
102.69
110.29
116.16
120.58
123.97
126.79
129.41
131.82
133.72
134.57
133.91
131.40
127.00
120.76
112.93
103.84
93.87
83.47
73.15
63.36
54.51
46.66
39.44
31.85
22.31
9.09
-9.17
-32.92
-61.39
-92.72
-124.40
-153.98
-179.65
-200.66
-217.34
-230.63
-241.31
-249.44
-253.81
-252.28
-242.65
-223.63
-195.56
-160.55
-121.77
-82.47
-45.25
-11.66
17.47
41.60
60.27
73.07
80.00
81.64
79.28
74.56
69.11
64.16
60.31
57.64
55.82
54.39
52.94
51.07
48.38
44.31
38.25
29.73
18.71
5.69
-8.27
-21.95
-34.39
-45.26
-54.90
-64.17
-74.08
-85.34
-97.83
-110.40
-120.80
-126.13
-123.66
-111.83
-90.95
-63.33
-32.47
-2.05
25.10
47.54
65.11
78.29
87.82
94.34
98.46
100.86
102.38
103.81
105.72
108.14
110.56
111.98
111.38
108.04
101.93
93.80
84.81
76.15
68.47
61.68
55.16
48.13
40.03
30.78
20.80
10.50
0.21
-10.14
-20.99
-33.02
-46.87
-62.89
-80.71
-99.03
-115.71
-128.03
-133.37
-130.01
-117.72
-97.91
-73.36
-47.33
-22.63
-0.91
17.64
33.90
49.03
63.58
77.22
88.85
97.29
101.92
103.11
102.02
100.00
98.03
96.47
95.10
93.45
91.18
88.27
84.80
80.95
76.69
71.77
65.77
58.28
49.12
38.54
27.27
16.26
6.32
-2.17
-9.45
-16.20
-23.28
-31.45
-41.15
-52.61
-65.86
-80.48
-95.38
-108.69
-117.91
-120.49
-114.72
-100.42
-79.10
-53.61
-27.11
-2.28
19.36
37.42
52.21
64.20
73.60
80.36
84.36
85.73
84.97
82.86
80.19
77.57
75.31
73.60
72.55
72.25
72.54
72.99
72.86
71.32
67.75
61.94
54.26
45.44
36.33
27.68
19.92
13.13
7.09
1.37
-4.49
-10.87
-17.96
-25.79
-34.22
-43.10
-52.33
-61.95
-72.14
-83.13
-95.01
-107.30
-118.71
-127.06
-129.71
-124.50
-110.62
-89.16
-62.96
-35.65
-10.43
10.79
27.56
40.46
50.34
57.70
62.68
65.27
65.75
64.80
63.28
61.94
60.98
60.04
58.40
55.44
51.06
45.78
40.62
36.56
34.05
32.65
31.23
28.36
23.01
14.96
4.88
-6.02
-16.51
-25.69
-33.36
-39.88
-46.03
-52.81
-61.15
-71.61
-83.99
-97.11
-108.84
-116.49
-117.55
-110.57
-95.68
-74.60
-50.08
-25.10
-2.06
17.65
33.50
45.46
53.57
57.80
58.20
55.29
50.25
44.76
40.56
38.84
39.83
42.77
46.24
48.81
49.53
48.21
45.35
41.76
38.11
34.64
31.08
26.78
21.12
13.95
5.61
-3.12
-11.44
-18.98
-25.92
-32.99
-41.16
-51.29
-63.83
-78.58
-94.59
-110.02
-122.40
-129.05
-127.80
-117.78
-99.82
-76.27
-50.34
-25.09
-2.59
16.29
31.66
44.06
53.93
61.37
66.33
68.89
69.46
68.85
67.89
67.26
67.14
67.29
67.26
66.71
65.63
64.31
63.11
62.25
61.62
60.73
58.99
55.92
51.29
45.28
38.44
31.50
25.18
19.85
15.37
11.03
5.77
-1.33
-10.68
-21.87
-33.81
-45.16
-54.89
-62.69
-69.03
-74.97
-81.81
-90.65
-102.15
-116.18
-131.71
-146.62
-157.92
-162.43
-157.69
-142.87
-119.22
-89.87
-58.84
-29.78
-5.09
14.49
29.45
40.82
49.44
55.71
59.77
61.86
62.54
62.63
62.87
63.61
64.65
65.40
65.25
63.86
61.43
58.57
56.00
54.30
53.54
53.24
52.48
50.28
45.98
39.70
32.21
24.71
18.22
13.15
9.13
5.29
0.68
-5.22
-12.36
-20.17
-27.87
-34.91
-41.10
-46.78
-52.64
-59.58
-68.51
-79.97
-93.85
-109.12
-123.76
-134.93
-139.62
-135.48
-121.70
-99.38
-71.39
-41.55
-13.50
10.32
29.02
43.04
53.54
61.67
68.06
72.95
76.38
78.55
79.86
80.82
81.72
82.50
82.74
81.96
79.87
76.59
72.63
68.66
65.16
62.20
59.39
56.05
51.44
45.11
37.08
27.85
18.28
9.35
1.80
-4.14
-8.85
-13.17
-18.11
-24.42
-32.19
-40.90
-49.60
-57.46
-64.14
-69.98
-75.93
-83.07
-92.33
-104.14
-118.27
-133.70
-148.45
-159.83
-164.77
-160.72
-146.61
-123.38
-93.90
-62.07
-31.66
-5.24
16.16
32.79
45.41
54.87
61.74
66.38
69.08
70.27
70.38
69.86
69.11
68.41
67.93
67.68
67.49
67.21
66.62
65.53
63.73
61.01
57.09
51.84
45.36
37.98
30.16
22.26
14.37
6.36
-1.97
-10.72
-19.85
-29.16
-38.45
-47.60
-56.70
-66.05
-76.10
-87.47
-100.65
-115.56
-131.23
-145.67
-156.08
-159.55
-154.08
-139.28
-116.62
-89.00
-59.91
-32.32
-8.09
12.33
29.44
44.00
56.42
66.57
74.01
78.47
80.34
80.58
80.40
80.76
81.89
83.55
85.13
86.17
86.46
86.08
85.12
83.52
80.95
76.96
71.18
63.57
54.46
44.66
35.21
26.94
20.23
14.67
9.23
2.66
-5.94
-16.70
-28.99
-41.64
-53.61
-64.32
-73.92
-83.18
-93.24
-105.21
-119.86
-137.18
-156.12
-174.43
-188.92
-196.17
-193.53
-179.98
-156.63
-126.40
-93.17
-60.50
-30.75
-4.79
17.65
37.30
54.67
69.76
82.26
91.92
98.83
103.44
106.42
108.34
109.43
109.69
109.00
107.32
104.82
101.88
98.91
96.23
93.91
91.68
89.02
85.28
79.98
73.00
64.75
55.99
47.63
40.27
33.90
28.02
21.69
14.01
4.48
-6.75
-18.97
-31.15
-42.41
-52.35
-61.29
-70.09
-79.93
-91.77
-106.12
-122.71
-140.42
-157.22
-170.42
-177.08
-174.78
-162.43
-140.75
-112.21
-80.37
-48.69
-19.60
5.86
27.83
46.91
63.47
77.46
88.49
96.32
101.14
103.52
104.28
104.14
103.46
102.29
100.54
98.13
95.11
91.68
88.01
84.10
79.78
74.73
68.76
61.88
54.41
46.79
39.37
32.11
24.59
16.17
6.34
-4.98
-17.28
-29.69
-41.34
-51.72
-61.02
-70.07
-80.10
-92.35
-107.57
-125.59
-145.03
-163.31
-177.14
-183.31
-179.70
-165.99
-143.91
-116.55
-87.28
-58.69
-31.87
-6.65
17.69
41.53
64.45
85.32
102.85
116.26
125.59
131.59
135.23
137.22
137.94
137.41
135.69
133.13
130.34
127.94
126.28
125.15
123.82
121.38
117.15
111.08
103.75
96.10
89.02
82.94
77.61
72.29
66.13
58.50
49.36
39.31
29.24
19.99
11.96
4.84
-2.19
-10.11
-19.68
-31.02
-43.70
-56.91
-69.81
-81.82
-92.82
-103.11
-113.38
-124.60
-137.75
-153.34
-170.97
-188.90
-204.21
-213.43
-213.58
-203.21
-182.90
-155.03
-122.92
-89.79
-57.87
-28.18
-0.75
24.75
48.42
69.72
87.80
101.88
111.79
118.12
122.07
124.90
127.40
129.67
131.32
131.88
131.17
129.32
126.71
123.67
120.30
116.49
112.11
107.09
101.53
95.66
89.73
83.93
78.33
72.65
66.43
59.16
50.59
40.88
30.79
21.27
13.15
6.73
1.59
-3.15
-8.49
-15.27
-23.76
-33.67
-44.22
-54.39
-63.30
-70.62
-76.68
-82.46
-89.29
-98.49
-110.80
-126.15
-143.29
-159.79
-172.38
-177.67
-173.16
-158.09
-133.89
-103.63
-71.14
-39.67
-11.20
13.60
34.86
52.86
67.68
79.15
87.26
92.40
95.31
96.89
97.87
98.61
99.10
98.96
97.83
95.49
92.09
88.14
84.33
81.24
79.04
77.32
75.27
71.96
66.83
59.86
51.61
42.93
34.63
27.12
20.27
13.55
6.17
-2.48
-12.68
-24.20
-36.39
-48.47
-59.86
-70.37
-80.26
-90.16
-100.85
-113.07
-127.32
-143.53
-160.84
-177.38
-190.49
-197.23
-195.32
-183.81
-163.51
-136.77
-106.67
-76.13
-47.14
-20.48
3.99
26.73
48.02
67.53
84.46
98.00
107.74
113.88
117.28
118.95
119.71
119.93
119.64
118.75
117.32
115.58
113.81
112.18
110.62
108.90
106.79
104.10
100.79
96.90
92.48
87.66
82.68
77.68
72.78
67.88
62.76
57.10
50.67
43.42
35.50
27.18
18.74
10.40
2.27
-5.87
-14.42
-23.89
-34.63
-46.62
-59.38
-72.04
-83.76
-94.02
-102.85
-110.85
-119.03
-128.58
-140.55
-155.53
-173.22
-192.15
-209.53
-221.79
-225.48
-218.39
-200.41
-173.57
-141.43
-107.84
-75.82
-46.92
-21.24
1.94
23.40
43.42
61.70
77.52
90.23
99.61
105.90
109.68
111.62
112.26
111.94
110.93
109.52
108.05
106.82
105.91
105.19
104.23
102.61
99.95
96.12
91.17
85.27
78.59
71.29
63.54
55.51
47.37
39.29
31.32
23.35
15.08
6.09
-3.94
-15.08
-27.02
-39.06
-50.42
-60.53
-69.34
-77.34
-85.48
-94.90
-106.60
-121.14
-138.28
-156.80
-174.39
-187.92
-194.16
-190.69
-176.75
-153.63
-124.30
-92.45
-61.43
-33.34
-8.87
12.47
31.61
49.34
65.83
80.76
93.50
103.54
110.68
115.15
117.34
117.71
116.72
114.79
112.35
109.91
107.90
106.56
105.79
105.26
104.43
102.76
99.74
95.12
88.95
81.62
73.86
66.55
60.36
55.51
51.70
48.23
44.30
39.35
33.09
25.60
17.15
8.16
-0.92
-9.71
-18.04
-26.07
-34.27
-43.18
-53.17
-64.20
-75.84
-87.47
-98.54
-108.82
-118.54
-128.22
-138.64
-150.64
-164.76
-180.85
-197.68
-212.72
-222.63
-224.14
-215.15
-195.57
-167.43
-134.18
-99.58
-66.60
-36.74
-10.20
13.60
35.33
55.14
72.70
87.48
99.17
107.85
114.06
118.47
121.58
123.54
124.24
123.64
121.92
119.47
116.85
114.44
112.35
110.36
108.04
104.88
100.54
94.91
88.21
80.93
73.77
67.25
61.61
56.61
51.69
46.15
39.55
31.88
23.61
15.42
7.85
1.08
-5.17
-11.67
-19.19
-28.25
-38.76
-50.05
-61.06
-70.84
-78.94
-85.62
-91.72
-98.34
-106.54
-117.12
-130.45
-146.22
-163.17
-178.95
-190.32
-193.88
-187.17
-169.56
-142.71
-110.01
-75.57
-43.05
-14.66
8.96
28.48
45.06
59.78
73.14
85.05
95.09
102.79
108.08
111.20
112.54
112.48
111.25
109.05
106.22
103.38
101.26
100.37
100.65
101.38
101.37
99.46
94.89
87.73
78.74
69.18
60.26
52.76
46.71
41.48
36.13
29.86
22.36
13.94
5.14
-3.65
-12.39
-21.43
-31.22
-41.97
-53.42
-64.96
-75.88
-85.70
-94.35
-102.26
-110.37
-119.81
-131.60
-146.28
-163.56
-182.00
-199.11
-211.70
-216.54
-211.31
-195.36
-170.03
-138.47
-104.62
-72.05
-42.97
-17.85
4.17
24.40
43.71
62.16
79.09
93.67
105.36
113.99
119.79
123.16
124.53
124.37
123.21
121.63
120.15
119.12
118.61
118.46
118.26
117.38
115.22
111.41
105.92
99.24
92.14
85.34
79.18
73.59
68.11
62.33
56.11
49.58
42.99
36.40
29.68
22.52
14.74
6.49
-1.83
-9.77
-17.07
-23.83
-30.47
-37.62
-45.79
-55.15
-65.43
-76.00
-86.04
-94.99
-102.70
-109.62
-116.62
-124.74
-134.94
-147.68
-162.74
-178.88
-193.80
-204.45
-207.69
-201.24
-184.52
-159.01
-127.80
-94.60
-62.61
-33.83
-8.91
12.53
31.20
47.64
62.09
74.52
84.80
92.93
99.04
103.41
106.31
107.94
108.43
107.89
106.53
104.69
102.78
101.09
99.62
98.11
96.07
93.00
88.67
83.10
76.55
69.34
61.84
54.32
47.04
40.14
33.65
27.43
21.05
13.96
5.67
-4.14
-15.41
-27.67
-40.19
-52.20
-63.07
-72.64
-81.26
-89.78
-99.38
-111.12
-125.63
-142.59
-160.48
-176.71
-188.08
-191.61
-185.44
-169.42
-145.21
-115.78
-84.52
-54.28
-26.83
-2.73
18.28
36.85
53.54
68.55
81.82
93.08
102.10
108.76
113.13
115.44
116.04
115.33
113.78
111.86
110.02
108.58
107.66
107.13
106.57
105.36
102.95
98.98
93.46
86.76
79.48
72.20
65.31
58.82
52.42
45.66
38.13
29.74
20.72
11.57
2.78
-5.40
-13.16
-20.98
-29.47
-39.04
-49.63
-60.71
-71.52
-81.41
-90.17
-98.16
-106.21
-115.42
-126.73
-140.66
-156.91
-174.19
-190.15
-201.81
-206.20
-201.21
-186.34
-162.94
-133.79
-102.24
-71.26
-42.75
-17.39
5.04
25.16
43.47
60.15
75.05
87.85
98.19
105.93
111.11
114.01
115.09
114.87
113.84
112.34
110.66
108.95
107.28
105.61
103.75
101.36
98.01
93.45
87.62
80.83
73.58
66.38
59.50
52.90
46.36
39.63
32.62
25.47
18.37
11.42
4.54
-2.58
-10.31
-18.93
-28.49
-38.74
-49.31
-59.78
-69.88
-79.66
-89.52
-100.18
-112.42
-126.72
-142.83
-159.38
-173.97
-183.60
-185.52
-178.00
-161.08
-136.56
-107.45
-77.09
-48.15
-22.19
0.46
20.18
37.48
52.59
65.34
75.38
82.56
87.13
89.68
90.97
91.61
91.88
91.71
90.91
89.43
87.39
85.14
82.95
80.76
78.12
74.29
68.59
60.82
51.39
41.22
31.44
22.84
15.57
9.11
2.47
-5.32
-14.84
-26.03
-38.25
-50.56
-62.07
-72.37
-81.61
-90.54
-100.31
-112.13
-126.76
-144.12
-162.98
-180.90
-194.66
-200.98
-197.49
-183.56
-160.48
-131.08
-98.85
-66.86
-37.04
-10.05
14.27
36.33
56.25
73.80
88.58
100.39
109.38
115.96
120.64
123.73
125.34
125.50
124.33
122.15
119.53
117.03
115.10
113.90
113.23
112.65
111.61
109.63
106.43
102.01
96.60
90.54
84.23
77.99
71.96
66.07
60.09
53.71
46.66
38.92
30.73
22.49
14.56
7.05
-0.33
-8.12
-16.92
-27.05
-38.42
-50.57
-62.80
-74.39
-84.90
-94.25
-102.77
-111.26
-120.81
-132.51
-147.11
-164.57
-183.65
-201.91
-216.03
-222.62
-219.15
-204.76
-180.65
-149.70
-115.57
-81.68
-50.35
-22.51
2.04
23.96
43.73
61.40
76.61
88.93
98.21
104.69
108.93
111.55
113.01
113.62
113.55
113.04
112.44
112.07
112.10
112.37
112.38
111.42
108.88
104.48
98.42
91.31
84.05
77.46
71.94
67.37
63.11
58.33
52.41
45.22
37.13
28.81
20.79
13.18
5.63
-2.47
-11.63
-21.95
-33.06
-44.30
-54.98
-64.73
-73.69
-82.41
-91.73
-102.60
-115.73
-131.24
-148.37
-165.22
-178.85
-185.85
-183.28
-169.74
-146.04
-115.03
-80.82
-47.39
-17.45
7.98
29.25
47.30
62.82
75.91
86.30
93.73
98.37
100.90
102.19
103.00
103.67
104.07
103.84
102.67
100.51
97.66
94.62
91.78
89.20
86.57
83.26
78.63
72.34
64.49
55.61
46.46
37.70
29.67
22.32
15.20
7.66
-0.95
-11.03
-22.55
-35.02
-47.57
-59.39
-69.95
-79.36
-88.36
-98.17
-110.06
-124.97
-143.06
-163.44
-184.02
-201.72
-212.99
-214.69
-205.10
-184.47
-155.11
-120.67
-85.14
-51.70
-22.10
3.37
25.29
44.54
61.72
76.96
90.06
100.81
109.12
115.17
119.29
121.80
122.97
123.04
122.38
121.47
120.86
120.91
121.54
122.16
121.86
119.70
115.12
108.16
99.45
90.00
80.78
72.51
65.40
59.16
53.17
46.76
39.50
31.32
22.52
13.58
4.90
-3.45
-11.76
-20.47
-30.01
-40.51
-51.78
-63.35
-74.70
-85.51
-95.85
-106.25
-117.64
-131.05
-147.17
-165.83
-185.63
-203.86
-216.97
-221.40
-214.68
-196.26
-167.91
-133.13
-96.20
-60.86
-29.51
-2.91
19.45
38.56
55.32
70.10
82.88
93.38
101.45
107.18
110.94
113.17
114.37
114.85
114.80
114.29
113.32
111.88
109.95
107.47
104.32
100.32
95.31
89.32
82.52
75.23
67.76
60.39
53.24
46.36
39.76
33.41
27.22
20.96
14.31
6.95
-1.39
-10.68
-20.62
-30.72
-40.47
-49.59
-58.19
-66.79
-76.23
-87.40
-101.02
-117.25
-135.38
-153.67
-169.36
-179.18
-180.07
-170.23
-149.79
-120.95
-87.45
-53.42
-22.23
4.29
25.86
43.27
57.59
69.51
79.22
86.64
91.76
94.92
96.80
98.12
99.32
100.35
100.86
100.44
98.92
96.51
93.61
90.60
87.57
84.31
80.40
75.36
68.93
61.05
52.05
42.51
33.15
24.57
17.01
10.19
3.30
-4.60
-14.22
-25.71
-38.52
-51.72
-64.35
-75.80
-86.01
-95.52
-105.31
-116.53
-130.29
-147.18
-166.95
-188.06
-207.68
-222.01
-227.26
-220.77
-201.96
-172.79
-137.15
-99.71
-64.56
-34.07
-8.71
12.55
31.26
48.63
65.12
80.51
94.28
105.98
115.37
122.48
127.38
130.20
131.07
130.24
128.19
125.47
122.69
120.28
118.34
116.60
114.48
111.32
106.55
99.94
91.66
82.17
72.12
62.13
52.58
43.56
34.83
25.86
16.06
4.92
-7.79
-21.85
-36.64
-51.34
-65.17
-77.70
-89.15
-100.20
-111.97
-125.65
-142.15
-161.62
-183.18
-204.62
-222.69
-233.76
-234.71
-224.07
-202.41
-172.22
-137.16
-100.96
-66.46
-35.18
-7.51
16.84
38.22
56.68
72.01
83.99
92.69
98.57
102.39
104.98
106.91
108.34
109.06
108.82
107.55
105.49
103.17
101.05
99.22
97.32
94.59
90.30
84.08
76.20
67.52
59.09
51.68
45.45
39.81
33.70
26.13
16.64
5.47
-6.51
-18.30
-29.12
-38.88
-48.09
-57.76
-69.08
-83.12
-100.58
-121.29
-143.92
-165.86
-183.42
-192.72
-190.79
-176.64
-151.66
-119.19
-83.44
-48.18
-15.87
12.58
37.42
59.28
78.49
94.87
107.94
117.32
123.06
125.79
126.48
126.06
125.13
123.81
122.01
119.66
116.87
113.95
111.20
108.64
105.94
102.45
97.46
90.44
81.35
70.64
59.22
48.15
38.24
29.71
22.10
14.38
5.39
-5.64
-18.84
-33.54
-48.68
-63.21
-76.50
-88.55
-100.00
-111.91
-125.47
-141.68
-160.92
-182.48
-204.29
-222.95
-234.41
-235.02
-222.74
-197.97
-163.53
-123.76
-83.16
-45.13
-11.35
18.04
43.74
66.44
86.44
103.60
117.66
128.51
136.37
141.76
145.33
147.68
149.18
150.02
150.25
149.84
148.83
147.41
145.85
144.28
142.54
140.09
136.20
130.27
122.26
112.77
102.85
93.52
85.34
78.14
71.17
63.57
54.79
44.83
34.24
23.76
13.94
4.89
-3.77
-12.79
-22.92
-34.59
-47.59
-61.17
-74.30
-86.19
-96.60
-106.10
-115.88
-127.35
-141.69
-159.49
-180.26
-202.17
-222.03
-235.81
-239.53
-230.57
-208.68
-176.24
-137.54
-97.44
-59.86
-26.92
1.07
24.93
45.66
63.87
79.53
92.28
101.83
108.27
112.13
114.17
115.13
115.44
115.22
114.36
112.88
110.99
109.12
107.62
106.54
105.46
103.67
100.44
95.30
88.23
79.61
70.12
60.60
51.77
44.07
37.49
31.46
25.02
17.19
7.32
-4.63
-17.99
-31.75
-44.89
-56.76
-67.31
-77.09
-87.11
-98.58
-112.63
-129.87
-149.87
-170.87
-189.75
-202.62
-205.87
-197.29
-176.93
-147.07
-111.60
-74.79
-40.06
-9.35
16.89
39.15
58.18
74.40
87.85
98.43
106.13
111.19
114.09
115.39
115.54
114.83
113.46
111.65
109.66
107.75
106.06
104.48
102.64
100.05
96.28
91.11
84.61
77.12
69.04
60.77
52.52
44.33
36.10
27.78
19.37
11.07
3.04
-4.67
-12.26
-20.24
-29.22
-39.62
-51.46
-64.26
-77.25
-89.60
-100.90
-111.33
-121.69
-133.19
-147.00
-163.73
-182.99
-202.91
-220.34
-231.27
-231.96
-220.14
-195.88
-161.72
-121.94
-81.22
-43.32
-10.28
17.53
40.83
60.58
77.43
91.60
103.09
112.01
118.64
123.35
126.43
127.96
127.91
126.31
123.48
120.05
116.76
114.20
112.54
111.43
110.16
107.89
104.05
98.49
91.54
83.78
75.81
67.94
60.14
52.16
43.77
34.97
26.07
17.48
9.47
1.98
-5.46
-13.60
-23.03
-33.97
-46.09
-58.59
-70.50
-81.06
-90.08
-98.01
-105.87
-114.98
-126.65
-141.56
-159.37
-178.29
-195.12
-205.81
-206.49
-194.84
-170.93
-137.44
-98.75
-59.69
-23.98
6.46
31.48
51.94
68.89
82.90
93.99
102.03
107.07
109.67
110.74
111.23
111.78
112.44
112.83
112.41
110.84
108.19
104.97
101.76
98.89
96.14
92.81
87.99
81.05
71.93
61.21
49.90
39.03
29.28
20.77
13.10
5.56
-2.60
-11.99
-22.85
-35.03
-48.00
-61.02
-73.36
-84.64
-94.99
-105.14
-116.18
-129.34
-145.50
-164.63
-185.49
-205.41
-220.65
-227.16
-221.86
-203.62
-173.92
-136.43
-95.94
-56.83
-22.01
7.53
32.24
53.16
71.16
86.57
99.29
109.21
116.49
121.57
125.05
127.36
128.58
128.61
127.32
124.81
121.56
118.23
115.44
113.44
111.92
110.25
107.66
103.57
97.80
90.62
82.56
74.24
66.14
58.45
51.02
43.46
35.37
26.60
17.41
8.37
0.00
-7.57
-14.88
-22.92
-32.70
-44.79
-58.90
-74.01
-88.78
-102.04
-113.29
-122.89
-132.01
-142.19
-154.97
-171.22
-190.55
-210.99
-229.01
-240.17
-240.36
-226.98
-200.03
-162.24
-118.44
-74.05
-33.59
0.38
27.52
49.01
66.54
81.40
94.08
104.52
112.56
118.34
122.33
125.07
126.87
127.67
127.25
125.52
122.78
119.66
116.81
114.63
112.93
111.02
108.02
103.29
96.69
88.69
80.11
71.76
64.04
56.86
49.73
42.12
33.75
24.78
15.66
6.83
-1.53
-9.63
-17.96
-27.03
-37.11
-48.10
-59.59
-70.97
-81.71
-91.56
-100.73
-109.91
-120.17
-132.68
-148.27
-166.77
-186.62
-204.77
-217.15
-219.72
-209.73
-186.74
-152.96
-112.60
-70.68
-31.53
2.22
29.81
51.84
69.44
83.49
94.40
102.31
107.45
110.40
112.00
113.06
114.04
114.83
114.97
114.02
111.81
108.63
105.10
101.76
98.81
95.87
92.12
86.59
78.63
68.24
56.17
43.60
31.74
21.35
12.45
4.42
-3.79
-13.13
-24.13
-36.74
-50.28
-63.81
-76.52
-88.11
-98.91
-109.95
-122.56
-137.88
-156.29
-176.93
-197.47
-214.42
-223.86
-222.50
-208.77
-183.42
-149.35
-110.76
-71.86
-35.77
-4.04
23.19
46.53
66.69
84.04
98.65
110.44
119.42
125.76
129.81
132.02
132.80
132.54
131.54
130.04
128.28
126.43
124.59
122.69
120.50
117.56
113.43
107.90
101.07
93.35
85.26
77.18
69.10
60.76
51.81
42.09
31.80
21.42
11.43
2.13
-6.66
-15.54
-25.21
-36.24
-48.74
-62.30
-76.09
-89.18
-100.90
-111.15
-120.51
-130.07
-141.18
-154.96
-171.80
-190.83
-209.71
-224.78
-231.91
-227.64
-210.42
-181.34
-143.74
-102.29
-61.52
-24.61
7.05
33.49
55.54
73.97
89.16
101.22
110.25
116.59
120.76
123.39
124.92
125.58
125.38
124.32
122.57
120.42
118.26
116.31
114.51
112.47
109.64
105.60
100.24
93.79
86.73
79.47
72.18
64.77
56.96
48.56
39.59
30.34
21.22
12.45
3.91
-4.79
-14.15
-24.51
-35.84
-47.75
-59.70
-71.20
-82.03
-92.31
-102.55
-113.63
-126.57
-142.22
-160.61
-180.49
-199.03
-212.30
-216.25
-208.01
-186.96
-155.05
-116.27
-75.45
-36.92
-3.43
24.11
46.26
64.25
79.20
91.67
101.68
109.04
113.79
116.29
117.12
116.87
115.93
114.48
112.69
110.75
108.94
107.46
106.30
105.09
103.27
100.23
95.54
89.02
80.77
71.11
60.49
49.45
38.53
28.18
18.54
9.35
0.07
-9.99
-21.34
-34.03
-47.55
-61.07
-73.73
-85.05
-95.13
-104.69
-114.84
-126.76
-141.44
-159.28
-179.65
-200.59
-218.92
-230.66
-232.15
-221.18
-197.84
-164.60
-125.56
-85.21
-47.20
-13.60
15.15
39.63
60.75
79.14
94.94
107.99
118.06
125.19
129.69
132.09
132.99
132.82
131.93
130.52
128.73
126.71
124.55
122.24
119.62
116.41
112.27
106.93
100.31
92.52
83.91
74.82
65.56
56.29
46.98
37.60
28.13
18.63
9.12
-0.47
-10.38
-20.95
-32.37
-44.56
-57.09
-69.40
-80.99
-91.70
-101.80
-112.00
-123.24
-136.51
-152.55
-171.38
-191.82
-211.25
-225.88
-231.60
-225.30
-206.04
-175.48
-137.41
-96.46
-56.79
-21.02
9.83
35.91
57.76
75.95
90.87
102.81
112.20
119.52
125.21
129.55
132.61
134.40
134.92
134.24
132.52
130.03
127.08
123.95
120.82
117.68
114.24
110.13
105.02
98.78
91.56
83.59
75.04
65.97
56.36
46.34
36.23
26.51
17.60
9.58
2.03
-5.80
-14.73
-25.35
-37.70
-51.28
-65.17
-78.40
-90.30
-100.74
-110.25
-119.93
-131.09
-144.81
-161.41
-179.95
-198.01
-212.01
-218.02
-212.86
-195.33
-166.69
-130.38
-90.95
-52.68
-18.48
10.49
34.40
54.00
69.92
82.45
91.61
97.60
100.96
102.62
103.55
104.39
105.27
105.80
105.39
103.72
100.98
97.76
94.83
92.63
90.94
88.97
85.62
80.06
72.07
62.21
51.55
41.26
32.08
24.04
16.45
8.20
-1.70
-13.68
-27.41
-41.94
-56.10
-69.05
-80.68
-91.63
-103.03
-116.10
-131.77
-150.27
-170.97
-192.15
-211.07
-224.26
-228.34
-220.97
-201.72
-172.34
-136.38
-98.05
-61.01
-27.53
1.73
27.20
49.72
69.81
87.44
102.20
113.63
121.63
126.55
129.16
130.28
130.64
130.66
130.47
130.03
129.29
128.13
126.40
123.80
119.99
114.77
108.22
100.73
92.85
85.02
77.30
69.48
61.12
51.94
41.90
31.23
20.20
8.97
-2.43
-14.16
-26.34
-39.01
-52.01
-65.05
-77.79
-89.93
-101.35
-112.38
-123.78
-136.57
-151.81
-170.16
-191.35
-213.90
-235.00
-250.87
-257.52
-251.85
-232.71
-201.63
-162.38
-119.87
-78.60
-41.41
-9.02
19.28
44.64
67.75
88.43
105.97
119.79
129.75
136.26
140.09
142.05
142.74
142.65
142.14
141.50
140.93
140.42
139.83
138.76
136.64
132.94
127.38
120.07
111.59
102.79
94.38
86.68
79.43
72.04
63.86
54.66
44.62
34.31
24.23
14.54
4.96
-5.11
-16.28
-28.80
-42.49
-56.71
-70.65
-83.65
-95.48
-106.45
-117.37
-129.38
-143.59
-160.71
-180.46
-201.19
-219.83
-232.34
-234.80
-224.69
-201.82
-168.51
-128.90
-87.54
-48.16
-12.83
17.90
44.39
67.17
86.41
101.96
113.67
121.73
126.80
129.82
131.66
132.82
133.38
133.12
131.89
129.77
127.08
124.29
121.72
119.29
116.51
112.63
106.94
99.11
89.44
78.74
68.05
58.26
49.67
41.84
33.69
23.96
11.80
-2.79
-18.76
-34.51
-48.44
-59.76
-68.85
-77.09
-86.38
-98.48
-114.37
-133.87
-155.51
-176.47
-192.97
-201.03
-197.49
-181.15
-153.27
-117.34
-77.94
-39.35
-4.39
25.76
51.20
72.61
90.52
105.26
117.04
126.11
132.87
137.73
141.02
142.94
143.59
142.98
141.18
138.32
134.75
130.87
127.13
123.77
120.67
117.42
113.43
108.27
101.86
94.34
85.97
76.91
67.21
56.90
46.15
35.28
24.76
14.90
5.77
-2.94
-11.79
-21.44
-32.38
-44.79
-58.39
-72.57
-86.52
-99.56
-111.45
-122.56
-133.86
-146.73
-162.35
-181.17
-202.28
-223.15
-239.92
-248.26
-244.75
-228.02
-199.38
-162.43
-121.83
-81.82
-45.11
-12.58
16.23
42.18
65.76
86.79
104.70
118.96
129.49
136.69
141.26
143.86
144.87
144.48
142.75
139.95
136.52
133.13
130.37
128.53
127.34
126.07
123.75
119.57
113.32
105.39
96.69
88.29
80.95
74.78
69.34
63.77
57.18
49.05
39.41
28.83
18.06
7.77
-1.76
-10.73
-19.71
-29.35
-40.09
-52.00
-64.74
-77.69
-90.19
-101.80
-112.40
-122.34
-132.41
-143.69
-157.27
-173.78
-192.88
-212.80
-230.33
-241.38
-242.20
-230.52
-206.59
-173.22
-134.84
-96.04
-60.21
-28.81
-1.61
22.44
44.23
63.96
81.18
95.21
105.66
112.67
116.80
118.82
119.39
118.98
117.87
116.27
114.41
112.51
110.78
109.26
107.80
106.04
103.50
99.70
94.40
87.61
79.64
70.99
62.12
53.39
44.91
36.70
28.59
20.24
11.26
1.22
-10.16
-22.73
-35.92
-48.85
-60.69
-71.07
-80.25
-89.08
-98.73
-110.33
-124.67
-141.88
-161.21
-180.82
-197.86
-208.85
-210.53
-200.92
-180.11
-150.32
-115.25
-78.97
-44.67
-14.08
12.54
35.70
56.07
73.94
89.22
101.65
111.22
118.16
122.91
125.94
127.48
127.61
126.41
124.13
121.29
118.53
116.35
114.84
113.63
111.98
109.17
104.71
98.60
91.26
83.38
75.62
68.40
61.73
55.16
48.05
39.80
30.19
19.47
8.38
-2.29
-11.99
-20.75
-29.13
-38.00
-48.10
-59.73
-72.60
-85.92
-98.76
-110.43
-120.77
-130.24
-139.86
-150.92
-164.69
-181.83
-201.90
-222.93
-241.51
-253.35
-254.48
-242.58
-217.87
-183.16
-142.89
-101.66
-62.93
-28.31
2.16
29.20
53.48
75.18
94.02
109.61
121.81
130.81
137.09
141.18
143.45
144.10
143.27
141.16
138.23
135.09
132.41
130.57
129.45
128.47
126.67
123.29
117.92
110.80
102.59
94.18
86.24
79.08
72.57
66.18
59.26
51.20
41.77
31.23
20.30
9.93
0.83
-6.82
-13.56
-20.41
-28.50
-38.53
-50.57
-64.01
-77.92
-91.32
-103.57
-114.54
-124.64
-134.88
-146.56
-160.97
-178.76
-199.27
-220.12
-237.39
-246.48
-243.52
-226.73
-197.15
-158.37
-115.38
-73.02
-34.62
-1.62
26.14
49.57
69.50
86.34
100.09
110.77
118.61
124.12
127.93
130.51
132.10
132.70
132.35
131.23
129.63
127.94
126.38
124.89
123.15
120.71
117.20
112.42
106.43
99.44
91.73
83.53
74.92
65.89
56.37
46.37
36.05
25.69
15.51
5.57
-4.42
-14.98
-26.69
-39.85
-54.25
-69.26
-83.99
-97.70
-110.18
-121.82
-133.58
-146.78
-162.68
-181.96
-204.07
-226.83
-246.38
-258.01
-257.51
-242.68
-214.22
-175.63
-132.12
-88.83
-49.48
-15.63
12.97
37.54
59.30
78.98
96.67
112.10
124.98
135.21
142.85
148.12
151.25
152.41
151.81
149.79
146.83
143.59
140.73
138.67
137.43
136.50
135.00
131.99
126.85
119.56
110.72
101.30
92.27
84.10
76.67
69.28
61.11
51.63
40.93
29.79
19.23
10.03
2.28
-4.78
-12.45
-21.97
-33.99
-48.28
-63.77
-79.12
-93.23
-105.62
-116.64
-127.26
-138.90
-153.01
-170.64
-191.96
-215.68
-238.83
-256.97
-265.27
-259.94
-239.63
-206.15
-163.96
-118.79
-75.80
-38.23
-6.96
18.89
40.99
60.70
78.62
94.63
108.31
119.32
127.59
133.29
136.64
137.89
137.36
135.52
133.03
130.63
128.84
127.74
126.91
125.55
122.92
118.55
112.51
105.24
97.29
89.01
80.55
71.91
63.06
54.15
45.34
36.73
28.20
19.39
9.90
-0.62
-12.22
-24.59
-37.19
-49.35
-60.51
-70.43
-79.30
-87.80
-97.02
-108.22
-122.54
-140.48
-161.39
-183.13
-202.03
-213.63
-213.81
-200.31
-173.56
-136.78
-95.01
-53.45
-16.02
15.42
40.87
61.35
77.95
91.32
101.62
108.87
113.44
116.04
117.55
118.71
119.68
120.07
119.22
116.65
112.40
107.11
101.79
97.24
93.69
90.62
86.99
81.66
73.95
63.94
52.40
40.55
29.52
19.95
11.70
3.93
-4.51
-14.65
-26.92
-40.93
-55.76
-70.26
-83.59
-95.53
-106.57
-117.71
-130.21
-145.25
-163.56
-184.97
-208.02
-229.75
-246.05
-252.55
-245.96
-225.31
-192.48
-151.75
-108.43
-67.23
-31.02
-0.48
25.27
47.73
67.98
86.35
102.51
116.00
126.60
134.44
139.88
143.32
145.00
145.10
143.82
141.50
138.67
135.83
133.31
131.05
128.64
125.49
121.10
115.28
108.25
100.55
92.68
84.87
76.89
68.27
58.58
47.81
36.50
25.50
15.54
6.71
-1.60
-10.50
-21.07
-33.77
-48.29
-63.69
-78.88
-93.08
-106.16
-118.65
-131.58
-146.23
-163.65
-184.17
-206.74
-228.66
-245.75
-253.38
-247.90
-228.09
-195.71
-154.94
-110.99
-68.42
-30.03
3.28
31.91
56.61
77.90
95.80
110.17
120.94
128.38
133.04
135.59
136.55
136.21
134.59
131.63
127.45
122.47
117.41
113.02
109.70
107.24
104.84
101.39
95.93
88.06
78.12
67.06
56.06
46.01
37.24
29.36
21.42
12.34
1.37
-11.57
-25.80
-40.10
-53.31
-64.72
-74.47
-83.53
-93.42
-105.77
-121.70
-141.37
-163.42
-184.87
-201.58
-209.18
-204.48
-186.57
-157.30
-120.67
-81.56
-44.12
-10.84
17.65
41.92
62.80
80.74
95.64
107.21
115.32
120.27
122.76
123.65
123.71
123.42
122.97
122.27
121.13
119.36
116.92
113.93
110.60
107.03
103.01
98.05
91.53
83.03
72.60
60.85
48.78
37.27
26.91
17.63
8.87
-0.25
-10.53
-22.46
-36.00
-50.55
-65.17
-78.87
-90.97
-101.43
-110.93
-120.74
-132.44
-147.41
-166.28
-188.43
-211.60
-231.95
-244.78
-245.71
-232.21
-204.60
-166.15
-122.10
-78.00
-37.99
-4.02
24.04
47.49
67.66
85.32
100.63
113.45
123.65
131.34
136.70
139.88
140.95
140.00
137.27
133.27
128.66
124.15
120.31
117.36
115.14
113.12
110.56
106.76
101.25
93.97
85.21
75.48
65.30
55.05
45.10
35.66
26.87
18.62
10.59
2.15
-7.35
-18.33
-30.81
-44.27
-57.89
-70.85
-82.56
-92.98
-102.61
-112.42
-123.70
-137.65
-154.97
-175.21
-196.41
-215.04
-226.68
-227.29
-214.58
-188.94
-153.52
-113.22
-73.08
-36.77
-5.90
19.74
41.31
59.90
75.91
89.09
99.13
106.05
110.38
112.98
114.55
115.36
115.27
114.03
111.62
108.50
105.45
103.19
101.92
101.07
99.51
95.95
89.57
80.38
69.25
57.50
46.32
36.25
26.97
17.61
7.26
-4.60
-17.80
-31.67
-45.34
-58.19
-70.05
-81.29
-92.73
-105.48
-120.68
-138.99
-160.09
-182.13
-201.71
-214.51
-216.61
-205.84
-182.73
-150.43
-113.57
-76.73
-43.05
-13.76
11.50
33.83
54.08
72.43
88.48
101.57
111.31
117.71
121.26
122.63
122.53
121.50
119.99
118.34
116.78
115.46
114.38
113.31
111.88
109.66
106.31
101.59
95.48
88.12
79.73
70.63
61.12
51.53
42.12
33.03
24.29
15.71
6.93
-2.51
-13.03
-24.88
-37.88
-51.46
-64.82
-77.30
-88.64
-99.18
-109.78
-121.52
-135.48
-152.42
-172.37
-194.24
-215.47
-232.34
-240.67
-237.11
-220.36
-191.79
-155.03
-114.80
-75.50
-39.98
-9.29
16.88
39.50
59.43
77.05
92.26
104.80
114.43
121.25
125.64
128.16
129.38
129.67
129.20
128.19
126.87
125.60
124.65
123.96
123.04
121.10
117.38
111.60
104.08
95.64
87.22
79.48
72.50
65.84
58.82
50.79
41.50
31.23
20.61
10.35
0.94
-7.69
-16.23
-25.59
-36.53
-49.25
-63.15
-77.12
-90.01
-101.21
-110.99
-120.40
-131.00
-144.29
-161.14
-181.36
-203.27
-223.71
-238.49
-243.38
-235.41
-213.89
-180.92
-140.79
-98.63
-58.86
-24.11
5.03
29.33
49.98
67.69
82.51
94.14
102.39
107.55
110.40
111.85
112.58
112.85
112.53
111.46
109.65
107.45
105.39
103.78
102.50
100.87
97.92
92.73
84.87
74.71
63.29
52.01
42.09
34.03
27.46
21.23
13.94
4.61
-6.96
-20.15
-33.73
-46.49
-57.72
-67.44
-76.53
-86.40
-98.61
-114.33
-133.83
-155.95
-177.99
-196.02
-205.78
-203.89
-188.95
-162.13
-126.85
-87.71
-49.18
-14.41
15.22
39.84
60.29
77.34
91.32
102.16
109.82
114.62
117.28
118.65
119.40
119.77
119.59
118.62
116.81
114.41
111.76
109.05
106.05
102.17
96.68
89.10
79.50
68.49
56.96
45.70
35.04
24.68
13.90
1.90
-11.78
-26.98
-42.97
-58.68
-73.26
-86.36
-98.37
-110.41
-123.94
-140.37
-160.32
-183.12
-206.41
-226.27
-238.11
-237.97
-223.85
-196.59
-159.61
-117.83
-76.06
-37.63
-3.95
25.29
51.14
74.47
95.48
113.75
128.66
139.85
147.46
152.06
154.35
154.95
154.18
152.18
148.98
144.82
140.10
135.38
131.11
127.44
124.06
120.30
115.37
108.64
99.93
89.53
78.22
66.93
56.41
47.01
38.45
29.94
20.50
9.32
-3.85
-18.58
-33.91
-48.73
-62.23
-74.16
-84.97
-95.68
-107.58
-121.95
-139.64
-160.65
-183.61
-205.66
-222.71
-230.35
-225.21
-206.14
-174.86
-135.47
-93.19
-52.70
-17.00
13.00
37.97
59.11
77.35
92.99
105.87
115.80
122.83
127.41
130.14
131.58
132.03
131.60
130.29
128.15
125.34
122.14
118.92
115.94
113.29
110.72
107.70
103.62
98.01
90.72
82.05
72.56
62.84
53.32
44.21
35.43
26.74
17.81
8.28
-2.18
-13.70
-26.12
-38.90
-51.32
-62.74
-72.90
-82.06
-91.07
-101.12
-113.47
-129.09
-148.11
-169.45
-190.52
-207.51
-216.17
-213.06
-196.78
-168.59
-132.09
-92.11
-53.22
-18.51
10.77
34.84
54.51
70.52
83.19
92.55
98.79
102.49
104.58
105.99
107.30
108.54
109.30
109.11
107.78
105.59
103.12
100.91
99.14
97.39
94.82
90.52
83.87
74.91
64.31
53.18
42.59
33.14
24.73
16.57
7.60
-3.07
-15.64
-29.59
-43.86
-57.36
-69.44
-80.19
-90.42
-101.42
-114.58
-130.88
-150.46
-172.12
-193.20
-209.93
-218.22
-214.90
-198.86
-171.46
-136.23
-97.70
-60.03
-26.00
3.36
28.39
50.07
69.21
86.06
100.39
111.68
119.65
124.40
126.47
126.65
125.68
124.15
122.46
120.92
119.74
119.03
118.68
118.20
116.90
114.03
109.14
102.25
93.88
84.85
75.94
67.66
60.00
52.53
44.61
35.69
25.65
14.83
3.84
-6.71
-16.62
-26.18
-35.93
-46.36
-57.59
-69.36
-81.14
-92.48
-103.27
-113.84
-124.95
-137.60
-152.78
-171.07
-192.00
-213.69
-232.75
-244.91
-246.12
-234.00
-208.70
-173.05
-131.67
-89.56
-50.61
-16.87
11.54
35.57
56.42
74.70
90.38
103.05
112.47
118.86
122.85
125.29
126.77
127.50
127.41
126.47
124.88
123.12
121.74
120.96
120.55
119.74
117.66
113.59
107.34
99.35
90.49
81.75
73.87
67.06
60.98
54.90
48.09
40.07
30.89
21.05
11.34
2.41
-5.56
-12.95
-20.59
-29.43
-40.03
-52.31
-65.50
-78.47
-90.17
-100.05
-108.36
-116.09
-124.69
-135.74
-150.28
-168.31
-188.20
-206.69
-219.37
-221.82
-211.10
-186.90
-151.82
-110.60
-68.62
-30.33
1.86
27.62
47.98
64.36
77.79
88.60
96.82
102.55
106.25
108.70
110.74
112.87
115.05
116.85
117.75
117.43
115.96
113.66
110.91
107.91
104.55
100.48
95.34
88.87
81.05
72.14
62.53
52.62
42.83
33.44
24.56
16.16
7.96
-0.51
-9.81
-20.43
-32.51
-45.79
-59.57
-73.03
-85.53
-96.98
-107.88
-119.23
-132.18
-147.74
-166.33
-187.28
-208.66
-227.16
-238.68
-239.33
-226.70
-200.88
-164.60
-122.55
-79.84
-40.57
-6.88
21.02
44.15
63.79
80.77
95.26
107.06
115.90
121.85
125.26
126.72
126.84
126.10
124.87
123.34
121.68
119.95
118.18
116.27
114.05
111.26
107.66
103.02
97.21
90.16
81.95
72.83
63.22
53.61
44.48
36.02
28.09
20.19
11.64
1.79
-9.69
-22.77
-37.03
-51.75
-66.13
-79.47
-91.38
-101.95
-111.86
-122.33
-134.84
-150.64
-170.07
-191.92
-213.23
-229.68
-236.63
-230.57
-210.33
-177.58
-136.42
-92.07
-49.45
-11.92
19.11
43.81
63.21
78.38
90.10
98.82
104.93
108.97
111.57
113.31
114.56
115.26
115.11
113.73
110.98
107.11
102.72
98.50
94.97
92.08
89.24
85.53
80.04
72.40
62.97
52.70
42.79
34.09
26.82
20.35
13.51
5.16
-5.33
-17.74
-31.02
-43.83
-55.11
-64.66
-73.23
-82.18
-92.95
-106.57
-123.27
-142.38
-162.28
-180.38
-193.36
-197.74
-190.84
-171.83
-142.23
-105.75
-67.07
-30.44
1.48
27.82
49.07
66.13
79.68
89.94
96.98
100.97
102.41
102.11
100.90
99.51
98.34
97.47
96.74
95.79
94.25
91.83
88.38
83.77
77.95
70.83
62.40
52.78
42.34
31.49
20.58
9.71
-1.37
-13.10
-25.79
-39.44
-53.62
-67.67
-80.87
-92.90
-104.07
-115.34
-128.14
-143.83
-163.03
-184.88
-206.76
-224.61
-233.86
-230.95
-214.46
-185.80
-148.70
-107.97
-68.07
-31.90
-0.51
26.45
49.85
70.29
87.86
102.27
113.31
121.19
126.55
130.23
132.85
134.60
135.20
134.26
131.70
127.89
123.66
119.88
116.98
114.60
111.72
107.15
100.05
90.44
79.22
67.71
57.10
47.82
39.45
30.94
21.12
9.34
-4.33
-19.12
-33.90
-47.69
-59.95
-70.90
-81.37
-92.68
-106.32
-123.46
-144.39
-167.98
-191.47
-210.74
-221.25
-219.42
-203.89
-176.09
-139.76
-99.80
-60.66
-25.23
5.48
31.81
54.69
74.77
92.10
106.40
117.38
125.15
130.22
133.34
135.17
136.00
135.83
134.47
131.87
128.29
124.28
120.50
117.34
114.69
111.95
108.14
102.33
94.09
83.72
72.12
60.58
50.17
41.31
33.65
26.23
17.97
8.10
-3.55
-16.55
-29.98
-42.88
-54.51
-64.64
-73.66
-82.53
-92.51
-104.83
-120.31
-138.77
-158.76
-177.46
-191.08
-195.73
-188.67
-169.23
-139.28
-102.68
-64.09
-27.58
4.40
31.12
52.98
70.61
84.35
94.19
100.12
102.57
102.50
101.15
99.60
98.39
97.54
96.69
95.49
93.70
91.26
88.13
84.27
79.63
74.24
68.23
61.85
55.22
48.30
40.83
32.40
22.71
11.68
-0.43
-13.06
-25.53
-37.25
-47.90
-57.59
-66.89
-76.75
-88.26
-102.23
-118.70
-136.51
-153.22
-165.48
-169.88
-164.09
-147.65
-122.25
-91.18
-58.28
-26.77
1.44
25.75
46.36
63.53
77.27
87.29
93.42
95.91
95.55
93.49
90.83
88.29
86.05
83.79
81.15
77.90
74.12
70.26
66.71
63.59
60.50
56.59
50.78
42.28
30.93
17.44
3.12
-10.48
-22.16
-31.45
-38.83
-45.49
-53.04
-62.93
-75.96
-91.94
-109.48
-126.05
-138.47
-143.55
-139.06
-124.42
-101.01
-71.83
-40.54
-10.38
16.66
39.92
59.56
75.85
88.82
98.20
103.82
106.10
105.99
104.73
103.36
102.42
101.80
101.00
99.30
96.14
91.33
85.10
78.07
71.10
64.81
59.30
54.02
47.87
39.71
28.94
15.69
0.83
-14.35
-28.61
-41.20
-51.98
-61.53
-70.88
-81.23
-93.64
-108.55
-125.44
-142.77
-157.95
-167.76
-169.14
-160.09
-140.40
-111.99
-78.34
-43.53
-10.92
17.57
41.57
61.65
78.52
92.47
103.39
111.16
116.00
118.57
119.72
120.11
119.96
119.13
117.49
115.08
112.24
109.49
107.32
105.84
104.76
103.48
101.20
97.23
91.20
83.31
74.28
65.10
56.75
49.76
44.02
38.80
33.16
26.35
18.15
9.06
-0.09
-8.54
-16.05
-23.04
-30.45
-39.21
-49.80
-62.01
-75.07
-87.93
-99.79
-110.40
-120.16
-129.97
-140.97
-154.18
-170.17
-188.63
-208.00
-225.40
-236.98
-238.85
-228.44
-205.57
-172.70
-134.22
-94.99
-58.81
-27.53
-1.11
21.53
41.59
59.71
75.91
89.87
101.31
110.23
116.71
120.93
123.00
123.01
121.24
118.29
114.96
112.18
110.64
110.56
111.56
112.84
113.40
112.35
109.16
103.69
96.33
87.77
78.94
70.81
64.05
58.86
54.78
50.95
46.35
40.25
32.40
23.09
13.01
2.98
-6.30
-14.46
-21.56
-28.09
-34.72
-42.05
-50.39
-59.50
-68.92
-78.13
-86.85
-95.15
-103.45
-112.33
-122.39
-134.09
-147.45
-161.70
-175.02
-184.66
-187.62
-181.57
-165.83
-141.80
-112.51
-81.58
-52.10
-25.86
-3.26
16.18
33.11
47.87
60.41
70.47
77.98
83.18
86.63
88.95
90.58
91.65
91.99
91.38
89.79
87.52
85.11
83.09
81.73
80.79
79.66
77.65
74.27
69.54
63.93
58.18
52.91
48.42
44.51
40.64
36.16
30.64
24.08
16.96
9.93
3.60
-1.81
-6.63
-11.55
-17.30
-24.33
-32.53
-41.37
-50.07
-58.06
-65.16
-71.62
-78.04
-85.16
-93.66
-104.00
-116.17
-129.44
-142.11
-151.69
-155.43
-151.18
-138.17
-117.62
-92.34
-65.86
-41.29
-20.48
-3.75
9.68
20.98
30.97
39.93
47.67
53.94
58.65
62.01
64.35
65.89
66.64
66.45
65.22
63.11
60.63
58.46
57.16
56.91
57.35
57.72
57.20
55.27
51.94
47.59
42.80
38.02
33.42
28.88
24.22
19.30
14.13
8.89
3.80
-1.04
-5.66
-10.33
-15.47
-21.41
-28.27
-35.80
-43.42
-50.44
-56.36
-61.14
-65.31
-69.78
-75.53
-83.35
-93.50
-105.57
-118.33
-129.77
-137.38
-138.73
-132.22
-117.79
-97.02
-72.74
-48.17
-25.91
-7.32
7.45
19.09
28.46
36.27
42.89
48.54
53.38
57.55
61.10
63.85
65.57
66.03
65.21
63.44
61.26
59.24
57.82
57.11
56.93
56.81
56.26
54.89
52.53
49.29
45.48
41.40
37.32
33.31
29.29
24.99
20.17
14.69
8.65
2.34
-3.79
-9.40
-14.42
-19.10
-23.90
-29.30
-35.51
-42.38
-49.50
-56.38
-62.79
-68.81
-74.92
-81.84
-90.42
-101.26
-114.39
-128.85
-142.53
-152.47
-155.66
-149.99
-135.12
-112.73
-85.97
-58.43
-33.06
-11.52
5.88
19.71
30.79
39.75
46.95
52.51
56.57
59.40
61.35
62.81
63.97
64.88
65.45
65.63
65.59
65.72
66.41
67.84
69.74
71.41
71.90
70.43
66.77
61.36
55.19
49.37
44.76
41.54
39.21
36.87
33.57
28.63
22.00
14.09
5.60
-2.75
-10.44
-17.33
-23.52
-29.37
-35.31
-41.74
-48.79
-56.36
-64.10
-71.71
-79.10
-86.57
-94.81
-104.67
-116.70
-130.80
-145.83
-159.56
-169.04
-171.37
-164.61
-148.55
-124.87
-96.67
-67.49
-40.14
-16.20
4.10
21.33
36.18
49.01
59.81
68.43
74.86
79.37
82.44
84.60
86.20
87.43
88.35
88.96
89.34
89.60
89.90
90.25
90.47
90.16
88.80
85.98
81.54
75.75
69.18
62.57
56.45
51.06
46.17
41.28
35.82
29.46
22.26
14.67
7.39
0.96
-4.45
-9.23
-14.23
-20.39
-28.31
-38.03
-48.95
-60.09
-70.59
-80.03
-88.64
-97.12
-106.53
-117.94
-131.99
-148.48
-166.05
-182.05
-192.96
-195.31
-186.80
-167.23
-138.67
-104.84
-69.96
-37.56
-9.71
13.03
31.18
45.69
57.49
67.17
75.12
81.48
86.41
90.13
92.92
95.06
96.68
97.77
98.19
97.83
96.72
95.12
93.37
91.65
89.96
88.02
85.41
81.77
76.88
70.79
63.71
55.98
47.99
40.04
32.31
24.87
17.58
10.21
2.42
-6.05
-15.34
-25.37
-35.85
-46.33
-56.48
-66.18
-75.74
-85.83
-97.30
-110.88
-126.74
-144.13
-161.22
-175.16
-182.62
-180.73
-168.02
-145.11
-114.63
-80.47
-46.58
-15.83
10.36
31.96
49.59
63.97
75.49
84.28
90.50
94.57
97.12
98.95
100.67
102.66
104.93
107.21
109.10
110.22
110.37
109.52
107.77
105.20
101.88
97.76
92.78
87.04
80.68
73.97
67.09
60.06
52.77
45.09
37.01
28.72
20.54
12.69
5.11
-2.55
-10.85
-20.23
-30.76
-42.05
-53.39
-64.10
-73.98
-83.43
-93.41
-105.09
-119.43
-136.72
-156.29
-176.38
-194.14
-205.99
-208.47
-199.19
-177.76
-146.22
-108.53
-69.48
-33.22
-2.22
22.95
43.03
59.18
72.30
82.77
90.73
96.41
100.28
103.01
105.16
107.01
108.59
109.78
110.52
110.86
110.99
111.05
111.06
110.81
109.92
107.96
104.54
99.55
93.24
86.18
79.05
72.40
66.38
60.68
54.68
47.81
39.85
31.00
21.95
13.37
5.68
-1.27
-8.18
-16.02
-25.57
-37.04
-49.93
-63.21
-75.76
-86.84
-96.36
-104.96
-113.81
-124.19
-137.19
-153.05
-170.77
-187.88
-200.75
-205.39
-198.76
-179.88
-150.38
-114.08
-75.76
-39.71
-8.68
16.39
35.96
51.08
62.73
71.52
77.79
81.89
84.39
86.05
87.59
89.48
91.71
93.81
95.13
95.15
93.77
91.34
88.50
85.88
83.72
81.79
79.48
76.17
71.45
65.39
58.44
51.15
43.94
36.80
29.40
21.21
11.82
1.23
-10.11
-21.40
-31.79
-40.83
-48.59
-55.72
-63.25
-72.24
-83.61
-97.74
-114.32
-132.13
-148.88
-161.52
-166.92
-162.78
-148.38
-124.94
-95.16
-62.44
-29.88
0.19
26.45
48.32
65.73
78.93
88.39
94.77
98.81
101.20
102.55
103.31
103.77
104.04
104.11
103.83
103.16
102.20
101.22
100.41
99.68
98.49
95.98
91.25
83.79
73.75
61.94
49.52
37.68
27.15
17.93
9.34
0.31
-10.19
-22.63
-36.71
-51.48
-65.79
-78.75
-90.17
-100.55
-110.93
-122.65
-136.90
-154.32
-174.50
-195.58
-214.27
-226.44
-228.24
-217.38
-194.12
-161.14
-122.74
-83.60
-47.36
-16.01
10.07
31.62
49.75
65.42
79.13
90.99
100.93
108.93
115.14
119.83
123.31
125.69
126.93
126.92
125.68
123.48
120.78
118.07
115.59
113.36
111.07
108.34
104.75
100.05
94.07
86.78
78.21
68.54
58.08
47.31
36.73
26.84
17.76
9.24
0.58
-9.03
-20.27
-33.23
-47.38
-61.80
-75.54
-88.17
-99.93
-111.65
-124.49
-139.50
-157.15
-176.91
-196.95
-214.14
-224.68
-225.02
-213.15
-189.35
-156.35
-118.28
-79.55
-43.52
-11.98
14.75
37.09
55.61
70.61
82.22
90.64
96.35
100.06
102.57
104.47
105.95
106.89
107.01
106.12
104.42
102.33
100.38
98.87
97.60
95.96
93.14
88.51
81.91
73.70
64.69
55.71
47.34
39.68
32.33
24.57
15.68
5.31
-6.26
-18.26
-29.76
-40.09
-49.25
-57.89
-67.18
-78.32
-92.21
-109.15
-128.58
-148.97
-167.69
-181.47
-187.08
-182.47
-167.33
-143.36
-113.59
-81.37
-49.46
-19.50
7.78
32.21
53.81
72.55
88.35
101.17
111.10
118.23
122.80
125.16
125.83
125.43
124.51
123.46
122.50
121.70
121.04
120.41
119.54
118.01
115.36
111.26
105.66
98.87
91.48
84.08
77.15
70.73
64.52
57.93
50.39
41.62
31.81
21.59
11.69
2.56
-5.90
-14.39
-23.71
-34.46
-46.64
-59.65
-72.60
-84.80
-96.06
-106.78
-117.87
-130.52
-145.83
-164.40
-185.87
-208.57
-229.44
-244.52
-249.85
-242.74
-222.66
-191.63
-153.59
-113.16
-74.34
-39.52
-9.20
17.34
41.15
62.84
82.31
98.94
112.26
122.19
129.25
134.15
137.48
139.44
139.99
139.12
137.16
134.71
132.50
130.98
130.08
129.27
127.70
124.61
119.63
112.90
105.14
97.33
90.29
84.34
79.13
73.75
67.17
58.74
48.51
37.21
25.89
15.42
6.16
-2.24
-10.60
-19.84
-30.60
-42.97
-56.45
-70.16
-83.21
-95.00
-105.49
-115.22
-125.24
-136.87
-151.27
-168.93
-189.00
-209.03
-225.23
-233.31
-229.82
-213.39
-185.37
-149.33
-109.91
-71.32
-36.37
-6.14
19.50
41.23
59.55
74.67
86.61
95.47
101.71
106.10
109.52
112.61
115.52
117.88
119.07
118.53
116.22
112.66
108.80
105.47
103.04
101.18
99.13
96.05
91.41
85.17
77.72
69.62
61.38
53.32
45.48
37.66
29.37
20.02
9.20
-3.17
-16.63
-30.38
-43.53
-55.61
-66.69
-77.44
-88.90
-102.19
-118.19
-137.27
-158.83
-181.06
-200.90
-214.52
-218.29
-209.95
-189.49
-159.33
-123.61
-86.86
-52.76
-23.23
1.60
22.82
41.82
59.51
76.09
91.10
103.93
114.14
121.70
126.97
130.38
132.35
133.22
133.21
132.59
131.68
130.70
129.63
128.16
125.72
121.77
116.10
108.98
101.09
93.29
86.18
79.78
73.52
66.54
58.15
48.24
37.31
26.27
15.89
6.39
-2.61
-11.87
-22.14
-33.78
-46.60
-60.02
-73.34
-86.06
-98.03
-109.58
-121.44
-134.54
-149.82
-167.71
-187.67
-207.86
-225.13
-235.63
-235.90
-223.96
-200.14
-167.10
-128.99
-90.16
-53.97
-22.05
5.58
29.72
51.24
70.46
87.10
100.65
110.80
117.76
122.11
124.58
125.81
126.18
125.90
125.13
124.08
122.95
121.85
120.69
119.16
116.79
113.16
108.05
101.49
93.86
85.70
77.50
69.52
61.68
53.64
45.07
35.82
26.17
16.61
7.54
-1.08
-9.70
-19.08
-29.81
-41.88
-54.72
-67.42
-79.22
-89.89
-99.95
-110.47
-122.68
-137.57
-155.38
-175.32
-195.23
-211.84
-221.30
-220.22
-206.77
-181.48
-147.24
-108.36
-69.31
-33.34
-2.02
24.60
47.15
66.28
82.18
94.74
103.93
110.05
113.87
116.31
118.15
119.78
121.23
122.35
122.93
122.88
122.17
120.78
118.69
115.84
112.21
107.76
102.47
96.22
88.96
80.65
71.42
61.55
51.49
41.65
32.21
23.09
13.85
3.96
-7.07
-19.42
-32.83
-46.75
-60.51
-73.60
-85.87
-97.65
-109.58
-122.52
-137.39
-154.88
-175.11
-197.14
-218.65
-236.07
-245.24
-242.76
-227.13
-199.45
-163.12
-122.78
-82.78
-46.05
-13.81
14.16
38.68
60.42
79.61
96.04
109.39
119.56
126.75
131.46
134.28
135.75
136.27
136.09
135.47
134.66
133.86
133.14
132.28
130.80
128.05
123.55
117.10
108.95
99.71
90.11
80.75
71.98
63.76
55.71
47.37
38.41
28.80
18.83
8.87
-0.89
-10.60
-20.72
-31.66
-43.55
-56.13
-68.88
-81.32
-93.32
-105.23
-117.72
-131.67
-147.91
-166.85
-188.14
-210.15
-229.79
-242.96
-245.53
-234.81
-210.63
-175.64
-134.53
-92.48
-53.63
-20.10
7.87
31.34
51.50
69.09
84.21
96.64
106.23
113.23
118.19
121.76
124.35
126.05
126.75
126.47
125.45
124.15
122.94
121.91
120.69
118.74
115.54
110.88
104.93
98.11
90.85
83.40
75.79
67.90
59.53
50.55
40.99
31.04
20.94
10.93
0.99
-9.12
-19.84
-31.50
-44.15
-57.44
-70.74
-83.34
-94.85
-105.34
-115.36
-125.89
-138.15
-153.13
-171.11
-191.05
-210.35
-225.03
-230.82
-224.39
-204.61
-173.09
-133.78
-91.64
-51.22
-15.44
14.68
39.55
60.12
77.05
90.52
100.44
106.92
110.58
112.50
113.85
115.40
117.27
118.94
119.78
119.35
117.70
115.31
112.75
110.37
108.00
105.11
100.90
94.70
86.27
75.88
64.33
52.63
41.65
31.70
22.51
13.24
2.91
-9.24
-23.39
-39.08
-55.27
-70.72
-84.37
-95.72
-105.15
-113.82
-123.43
-135.76
-152.08
-172.59
-196.00
-219.55
-239.16
-250.34
-249.25
-233.86
-204.81
-165.42
-120.82
-76.47
-36.54
-3.02
24.30
47.02
66.89
84.87
101.00
114.64
125.18
132.49
137.01
139.51
140.69
140.95
140.42
139.13
137.24
135.03
132.84
130.87
129.01
126.85
123.89
119.58
113.63
106.03
97.02
86.97
76.27
65.20
53.93
42.59
31.40
20.59
10.32
0.47
-9.41
-20.02
-31.94
-45.39
-59.99
-74.89
-89.18
-102.29
-114.36
-126.22
-139.24
-154.81
-173.82
-195.92
-219.12
-239.80
-253.26
-255.07
-242.56
-215.91
-178.26
-134.74
-90.74
-50.31
-15.41
13.96
38.79
60.11
78.49
94.01
106.68
116.73
124.57
130.57
134.92
137.60
138.56
137.92
136.12
133.69
131.16
128.81
126.70
124.64
122.28
119.22
115.04
109.47
102.35
93.80
84.14
73.85
63.45
53.32
43.62
34.27
25.01
15.52
5.50
-5.26
-16.87
-29.28
-42.31
-55.56
-68.53
-80.84
-92.38
-103.46
-114.91
-127.81
-143.22
-161.72
-182.86
-204.80
-224.18
-236.72
-238.22
-225.97
-199.88
-162.75
-119.43
-75.32
-34.66
0.31
29.39
53.46
73.50
89.96
102.81
112.01
117.91
121.43
123.74
125.81
128.05
130.27
131.89
132.30
131.22
128.83
125.62
122.09
118.45
114.51
109.77
103.81
96.45
87.85
78.34
68.25
57.76
46.98
36.05
25.11
14.26
3.34
-8.05
-20.41
-34.00
-48.60
-63.49
-77.80
-90.87
-102.60
-113.52
-124.54
-136.75
-151.19
-168.66
-189.34
-212.36
-235.31
-254.21
-264.26
-261.30
-243.33
-211.47
-169.71
-123.64
-78.55
-38.00
-3.29
26.00
51.05
72.89
91.93
108.11
121.19
131.16
138.21
142.76
145.32
146.37
146.29
145.35
143.79
141.87
139.85
137.95
136.26
134.54
132.32
129.06
124.31
117.95
110.18
101.37
91.91
82.08
72.00
61.75
51.39
41.00
30.60
20.06
9.04
-2.85
-15.93
-30.24
-45.46
-60.92
-75.85
-89.58
-101.89
-113.11
-124.15
-136.39
-151.28
-169.85
-192.09
-216.35
-239.14
-255.70
-261.18
-252.16
-227.94
-190.95
-146.04
-99.07
-55.07
-17.06
14.24
39.87
61.46
80.31
96.89
111.00
122.28
130.69
136.60
140.62
143.20
144.51
144.46
142.92
140.04
136.35
132.50
129.15
126.53
124.42
122.18
118.88
113.63
105.92
95.84
84.12
71.91
60.38
50.33
41.93
34.69
27.68
19.83
10.16
-1.92
-16.39
-32.56
-49.24
-65.13
-79.26
-91.47
-102.42
-113.41
-125.94
-141.25
-159.97
-181.63
-204.35
-224.77
-238.43
-240.90
-229.27
-203.40
-166.15
-122.62
-78.41
-37.91
-3.32
25.18
48.54
67.74
83.27
95.19
103.57
108.92
112.20
114.44
116.38
118.15
119.38
119.57
118.50
116.43
113.95
111.71
109.98
108.37
105.92
101.43
94.04
83.61
70.83
57.09
43.85
32.14
22.11
13.05
3.70
-7.17
-20.22
-35.30
-51.54
-67.70
-82.82
-96.59
-109.54
-122.90
-138.20
-156.70
-178.75
-203.30
-227.63
-247.60
-258.53
-256.57
-240.08
-210.38
-171.34
-128.20
-85.78
-47.15
-13.28
16.41
42.99
67.05
88.31
106.01
119.49
128.76
134.56
138.10
140.48
142.29
143.53
143.77
142.63
140.13
136.79
133.42
130.62
128.37
126.06
122.63
117.07
108.94
98.51
86.63
74.40
62.80
52.39
43.12
34.30
24.89
13.80
0.35
-15.42
-32.63
-49.93
-65.93
-79.83
-91.70
-102.56
-114.02
-127.93
-145.73
-167.86
-193.22
-218.88
-240.38
-252.72
-251.77
-235.69
-205.65
-165.49
-120.56
-76.17
-36.12
-2.02
26.44
50.67
72.19
91.76
109.24
123.91
135.11
142.71
147.29
149.74
150.81
150.84
149.78
147.50
144.22
140.45
136.84
133.80
131.23
128.55
124.97
119.72
112.30
102.66
91.22
78.73
66.19
54.48
44.05
34.79
26.08
17.06
6.94
-4.86
-18.57
-33.94
-50.30
-66.60
-81.63
-94.55
-105.34
-115.00
-125.38
-138.61
-156.17
-178.16
-202.79
-226.39
-244.04
-250.91
-243.55
-221.15
-185.88
-142.35
-96.11
-52.04
-13.18
19.37
45.97
67.52
84.85
98.45
108.81
116.53
122.34
126.99
130.89
134.09
136.28
136.97
135.88
133.06
129.08
124.76
120.93
117.89
115.29
112.13
107.26
99.84
89.85
77.94
65.12
52.36
40.12
28.27
16.34
3.79
-9.69
-24.00
-38.62
-52.84
-66.08
-78.22
-89.78
-101.79
-115.60
-132.43
-152.82
-176.24
-200.75
-222.97
-238.57
-243.34
-234.51
-211.84
-177.90
-137.27
-95.00
-55.06
-19.41
11.83
39.51
64.39
86.57
105.53
120.59
131.32
137.90
141.09
141.99
141.66
140.94
140.22
139.46
138.39
136.77
134.54
131.88
128.93
125.61
121.47
115.90
108.34
98.72
87.49
75.51
63.73
52.90
43.27
34.63
26.21
16.93
5.81
-7.61
-23.14
-39.81
-56.22
-71.18
-84.06
-95.11
-105.26
-115.82
-128.31
-144.03
-163.75
-187.15
-212.34
-235.61
-252.03
-256.75
-246.49
-220.94
-182.96
-137.78
-91.26
-48.18
-11.15
19.55
45.14
67.22
86.76
103.93
118.20
128.99
136.17
140.26
142.12
142.65
142.46
141.82
140.73
139.23
137.48
135.66
133.79
131.66
128.80
124.70
118.88
111.22
101.91
91.46
80.50
69.63
59.20
49.22
39.54
29.97
20.37
10.72
0.89
-9.42
-20.66
-33.18
-46.93
-61.26
-75.16
-87.67
-98.41
-107.93
-117.45
-128.59
-142.76
-160.75
-182.23
-205.49
-227.40
-243.67
-249.84
-242.54
-220.69
-186.10
-143.02
-96.81
-52.51
-13.45
19.03
45.28
66.39
83.45
97.10
107.61
115.18
120.14
123.07
124.67
125.45
125.64
125.14
123.80
121.62
118.89
116.08
113.43
110.86
107.69
103.11
96.44
87.50
76.71
64.88
52.86
41.19
29.91
18.50
6.23
-7.50
-22.68
-38.74
-54.61
-69.23
-82.11
-93.60
-104.90
-117.59
-133.18
-152.45
-174.99
-198.94
-221.00
-236.95
-242.55
-234.87
-213.27
-179.80
-138.76
-95.27
-53.74
-16.79
14.91
42.09
65.78
86.53
104.19
118.21
128.18
134.27
137.20
138.06
137.92
137.53
137.21
136.93
136.46
135.56
134.10
132.03
129.28
125.67
120.78
114.11
105.23
94.11
81.17
67.33
53.70
41.18
30.15
20.26
10.57
-0.08
-12.65
-27.46
-43.93
-60.84
-76.76
-90.69
-102.45
-112.80
-123.15
-135.17
-150.32
-169.34
-191.83
-215.81
-237.69
-252.81
-256.61
-246.12
-221.08
-184.18
-140.21
-94.50
-51.32
-13.01
19.96
48.30
72.90
94.22
112.19
126.48
136.95
143.87
147.92
149.87
150.34
149.68
148.03
145.57
142.55
139.40
136.41
133.65
130.81
127.31
122.56
116.11
107.76
97.64
86.13
73.83
61.49
49.82
39.23
29.58
20.21
10.19
-1.44
-15.15
-30.77
-47.47
-64.09
-79.58
-93.26
-105.16
-115.90
-126.54
-138.36
-152.59
-170.04
-190.72
-213.33
-234.97
-251.43
-258.10
-251.39
-230.04
-195.76
-152.76
-106.43
-61.63
-21.48
12.85
41.65
65.72
85.57
101.26
112.66
119.94
123.80
125.44
126.09
126.59
127.08
127.21
126.48
124.67
121.98
118.83
115.56
112.01
107.59
101.59
93.63
83.98
73.47
63.00
52.98
43.09
32.49
20.29
6.11
-9.66
-26.08
-42.12
-57.08
-70.87
-84.04
-97.55
-112.55
-130.08
-150.74
-174.21
-198.71
-220.88
-236.24
-240.30
-230.07
-205.28
-168.64
-125.10
-80.25
-38.64
-2.73
27.10
51.86
72.81
90.68
105.47
116.84
124.61
129.19
131.44
132.36
132.64
132.48
131.63
129.79
126.91
123.37
119.78
116.68
114.11
111.48
107.71
101.66
92.69
81.04
67.78
54.51
42.61
32.62
23.96
15.18
4.59
-8.91
-25.38
-43.83
-62.61
-80.02
-95.05
-107.66
-118.87
-130.51
-144.72
-163.19
-186.46
-213.29
-240.48
-263.27
-276.42
-275.63
-258.89
-227.16
-184.19
-135.38
-86.23
-40.95
-1.79
30.93
58.05
80.67
99.64
115.37
127.98
137.63
144.70
149.69
153.20
155.65
157.27
158.13
158.11
156.98
154.61
151.03
146.49
141.38
135.99
130.26
123.78
115.98
106.46
95.30
83.05
70.57
58.54
47.29
36.57
25.81
14.29
1.41
-13.12
-29.14
-46.02
-62.78
-78.41
-92.33
-104.66
-116.31
-128.79
-143.67
-162.09
-184.28
-209.16
-234.17
-255.40
-268.29
-268.74
-254.43
-225.65
-185.49
-138.89
-91.09
-46.23
-6.52
27.52
56.42
80.72
100.65
116.17
127.31
134.53
138.65
140.70
141.55
141.71
141.36
140.41
138.76
136.45
133.63
130.46
126.95
122.82
117.57
110.66
101.85
91.38
79.91
68.26
56.92
45.89
34.55
22.13
8.09
-7.46
-23.82
-39.98
-55.00
-68.54
-80.91
-93.11
-106.59
-122.92
-143.22
-167.59
-194.38
-220.07
-239.69
-248.11
-241.69
-219.59
-184.20
-140.37
-93.75
-49.02
-8.83
26.13
56.37
82.53
104.70
122.50
135.52
143.85
148.28
150.08
150.50
150.31
149.65
148.23
145.69
142.02
137.68
133.38
129.71
126.61
123.33
118.64
111.39
101.14
88.42
74.52
60.88
48.47
37.36
26.78
15.50
2.47
-12.74
-29.74
-47.52
-64.89
-80.99
-95.62
-109.30
-123.24
-138.94
-157.80
-180.55
-206.69
-234.04
-258.74
-275.81
-280.51
-269.78
-243.46
-204.52
-158.08
-109.71
-63.79
-22.52
13.89
46.24
75.31
101.17
123.19
140.67
153.28
161.38
165.93
168.11
168.86
168.77
168.03
166.61
164.42
161.52
158.09
154.35
150.41
146.14
141.17
134.96
127.08
117.45
106.33
94.31
82.04
70.05
58.59
47.60
36.77
25.62
13.60
0.26
-14.60
-30.75
-47.53
-64.08
-79.61
-93.77
-106.75
-119.24
-132.40
-147.58
-166.05
-188.53
-214.49
-241.53
-265.31
-280.33
-281.53
-266.06
-234.47
-190.70
-140.77
-90.78
-45.14
-5.89
27.03
54.71
78.20
97.93
113.78
125.57
133.54
138.47
141.39
143.21
144.36
144.78
144.16
142.39
139.76
136.98
134.68
133.09
131.74
129.51
125.07
117.48
106.65
93.44
79.32
65.86
53.99
43.60
33.59
22.36
8.62
-7.98
-26.64
-45.77
-63.73
-79.57
-93.36
-106.20
-119.79
-135.87
-155.63
-179.23
-205.30
-230.70
-250.86
-260.74
-256.34
-236.09
-201.67
-157.54
-109.51
-62.87
-21.02
14.91
45.49
71.82
94.57
113.69
128.75
139.52
146.35
150.21
152.28
153.44
154.08
154.13
153.32
151.54
148.95
145.90
142.69
139.40
135.79
131.46
126.03
119.41
111.78
103.42
94.57
85.24
75.23
64.41
52.90
41.19
29.94
19.56
9.93
0.21
-10.72
-23.77
-39.13
-56.12
-73.48
-89.97
-104.90
-118.38
-131.21
-144.55
-159.65
-177.52
-198.58
-222.14
-245.93
-266.00
-277.36
-275.42
-257.60
-224.48
-179.88
-129.57
-79.45
-33.88
5.09
37.51
64.39
86.83
105.38
120.16
131.21
138.87
143.89
147.20
149.61
151.49
152.74
153.00
151.92
149.44
145.86
141.64
137.13
132.44
127.31
121.51
114.87
107.47
99.42
90.81
81.54
71.46
60.57
49.09
37.50
26.30
15.74
5.79
-3.99
-14.23
-25.56
-38.24
-52.18
-66.80
-81.29
-94.93
-107.37
-118.94
-130.61
-143.78
-159.76
-179.25
-201.67
-224.85
-245.01
-257.34
-257.27
-242.00
-211.59
-169.30
-120.68
-71.77
-27.39
9.98
40.19
64.43
84.07
99.88
111.94
120.10
124.63
126.43
126.76
126.78
127.06
127.40
127.17
125.73
122.93
119.21
115.38
112.06
109.30
106.34
101.91
94.87
84.71
71.91
57.73
43.76
31.21
20.46
10.87
1.12
-10.18
-23.86
-39.87
-57.23
-74.55
-90.60
-104.79
-117.49
-129.85
-143.47
-159.90
-180.16
-204.10
-229.98
-254.31
-272.26
-278.76
-270.07
-245.24
-206.64
-159.37
-109.61
-62.69
-21.78
12.46
41.11
65.80
87.75
107.26
123.96
137.23
146.77
152.72
155.70
156.49
155.83
154.20
151.82
148.86
145.49
142.04
138.83
135.97
133.21
129.85
125.02
118.00
108.52
96.82
83.60
69.75
56.24
43.78
32.71
22.78
13.19
2.68
-9.91
-25.16
-42.70
-61.32
-79.35
-95.44
-109.07
-120.81
-132.11
-144.91
-160.99
-181.48
-206.16
-233.12
-258.59
-277.54
-284.83
-276.76
-252.35
-213.85
-166.16
-115.27
-66.53
-23.39
13.00
43.24
68.63
90.23
108.40
122.95
133.67
140.82
145.18
147.78
149.41
150.28
150.10
148.36
144.81
139.80
134.22
129.09
125.08
122.04
119.04
114.65
107.66
97.59
84.95
71.10
57.60
45.66
35.62
26.95
18.56
9.28
-1.75
-14.72
-29.20
-44.30
-58.94
-72.28
-84.07
-94.90
-106.10
-119.38
-136.27
-157.40
-181.85
-206.89
-228.17
-240.65
-239.98
-223.96
-193.47
-152.39
-106.42
-61.34
-21.26
12.03
38.87
60.56
78.27
92.43
102.88
109.40
112.27
112.47
111.30
109.96
109.10
108.74
108.39
107.45
105.49
102.29
97.87
92.34
85.72
78.03
69.26
59.47
48.78
37.36
25.32
12.70
-0.52
-14.26
-28.22
-42.00
-55.21
-67.74
-79.93
-92.65
-107.02
-124.15
-144.64
-168.13
-192.80
-215.33
-231.33
-236.38
-227.41
-203.87
-168.15
-124.90
-79.54
-36.66
1.11
33.13
60.00
82.66
101.61
116.75
127.79
134.66
137.82
138.23
137.12
135.46
133.81
132.15
130.10
127.12
122.79
117.01
109.96
101.98
93.40
84.40
74.97
64.88
53.78
41.26
27.04
11.03
-6.41
-24.53
-42.41
-59.22
-74.57
-88.78
-102.71
-117.67
-135.04
-155.79
-179.98
-206.13
-231.00
-250.01
-258.33
-252.44
-231.60
-198.23
-157.11
-113.62
-71.89
-33.80
0.84
33.09
63.64
92.17
117.48
138.25
153.77
164.29
170.73
174.22
175.59
175.28
173.39
170.06
165.64
160.72
155.96
151.82
148.27
144.70
140.07
133.34
123.85
111.73
97.92
83.87
70.93
59.75
49.98
40.33
29.15
15.23
-1.64
-20.50
-39.66
-57.38
-72.69
-85.69
-97.49
-109.82
-124.44
-142.69
-164.96
-190.33
-216.27
-238.85
-253.39
-255.71
-243.51
-217.17
-179.76
-136.05
-90.93
-48.07
-9.32
25.14
55.89
83.44
107.67
127.99
143.74
154.65
161.14
164.21
165.05
164.65
163.57
162.04
160.07
157.74
155.28
152.90
150.67
148.30
145.25
140.90
134.73
126.52
116.40
104.72
92.07
79.09
66.38
54.31
42.98
32.18
21.47
10.35
-1.55
-14.44
-28.20
-42.50
-56.71
-70.15
-82.33
-93.14
-103.10
-113.30
-125.19
-140.12
-158.87
-181.07
-204.83
-226.71
-242.27
-247.09
-238.16
-214.95
-179.76
-137.10
-92.19
-49.48
-11.56
20.92
48.54
72.06
91.79
107.45
118.66
125.48
128.68
129.56
129.42
129.08
128.65
127.71
125.81
122.86
119.30
115.89
113.20
111.18
109.01
105.41
99.19
89.84
77.87
64.59
51.62
40.12
30.36
21.60
12.53
1.94
-10.70
-25.03
-40.03
-54.53
-67.79
-79.77
-91.19
-103.25
-117.27
-134.34
-154.81
-177.88
-201.28
-221.46
-234.18
-235.67
-223.93
-199.42
-165.06
-125.24
-84.48
-46.14
-11.83
18.36
45.12
69.02
90.11
107.82
121.45
130.58
135.47
136.92
136.16
134.37
132.35
130.42
128.58
126.62
124.38
121.83
118.99
115.84
112.25
108.01
102.93
96.89
89.86
81.86
73.00
63.40
53.26
42.90
32.65
22.72
13.12
3.55
-6.48
-17.40
-29.48
-42.58
-56.25
-69.94
-83.16
-95.73
-107.86
-120.14
-133.46
-148.88
-167.15
-188.26
-210.85
-232.03
-247.70
-253.60
-246.69
-226.19
-194.09
-154.42
-111.98
-70.86
-33.47
-0.50
28.51
54.21
76.83
96.08
111.45
122.74
130.28
134.90
137.62
139.19
139.98
139.97
139.01
137.15
134.68
132.07
129.70
127.61
125.44
122.48
118.07
111.84
104.01
95.25
86.50
78.51
71.53
65.18
58.68
51.12
41.99
31.36
19.95
8.76
-1.35
-10.07
-17.82
-25.67
-34.84
-46.22
-59.91
-75.21
-90.85
-105.45
-118.19
-128.99
-138.67
-148.64
-160.55
-175.75
-194.72
-216.47
-238.24
-255.66
-263.76
-258.47
-238.13
-204.19
-160.92
-113.94
-68.47
-27.95
6.36
34.87
58.66
78.59
94.97
107.77
117.01
123.08
126.70
128.68
129.65
129.96
129.65
128.78
127.43
125.83
124.22
122.66
121.00
118.84
115.70
111.23
105.32
98.19
90.27
82.06
73.94
65.96
57.80
49.04
39.31
28.64
17.44
6.25
-4.56
-15.11
-25.99
-37.89
-51.27
-65.99
-81.41
-96.68
-111.15
-124.71
-137.88
-151.67
-167.39
-186.16
-208.37
-233.00
-257.22
-276.59
-286.00
-281.29
-260.72
-225.85
-181.07
-132.24
-84.75
-42.18
-5.81
24.92
51.34
74.62
95.29
113.26
128.23
140.00
148.71
154.82
158.81
161.04
161.66
160.78
158.69
155.92
153.23
151.24
150.09
149.27
147.80
144.64
139.20
131.61
122.61
113.13
103.89
95.03
86.16
76.59
65.81
53.71
40.76
27.76
15.49
4.33
-6.00
-16.33
-27.66
-40.72
-55.56
-71.49
-87.43
-102.35
-115.77
-128.00
-140.12
-153.72
-170.38
-191.14
-215.80
-242.40
-267.00
-284.35
-289.10
-277.53
-249.07
-206.66
-155.99
-103.70
-55.36
-14.16
19.30
46.19
68.22
86.69
102.07
114.27
123.19
129.07
132.58
134.58
135.79
136.56
136.82
136.29
134.75
132.25
129.14
125.96
123.11
120.63
118.10
114.72
109.62
102.19
92.35
80.61
67.97
55.60
44.52
35.23
27.51
20.51
13.09
4.23
-6.54
-18.91
-31.97
-44.65
-56.22
-66.70
-76.87
-88.06
-101.84
-119.45
-141.46
-167.32
-194.96
-220.68
-239.62
-246.85
-238.85
-214.88
-177.49
-131.83
-84.15
-39.83
-2.07
28.50
53.09
73.50
91.09
106.24
118.60
127.71
133.53
136.58
137.64
137.48
136.44
134.55
131.74
128.16
124.19
120.43
117.34
115.01
113.05
110.74
107.23
101.78
94.03
84.02
72.27
59.69
47.33
36.08
26.38
17.96
9.95
1.18
-9.46
-22.48
-37.59
-53.85
-70.04
-85.21
-99.06
-112.07
-125.33
-140.17
-157.86
-179.15
-203.83
-230.18
-254.76
-272.79
-279.16
-270.13
-244.78
-205.61
-157.87
-107.78
-60.65
-19.53
14.90
43.52
67.59
87.98
104.91
118.33
128.38
135.54
140.53
144.03
146.44
147.74
147.76
146.35
143.59
139.92
135.99
132.44
129.55
127.11
124.41
120.47
114.40
105.74
94.67
81.93
68.70
56.17
45.14
35.73
27.26
18.47
7.99
-5.06
-20.63
-37.71
-54.71
-70.15
-83.33
-94.63
-105.33
-117.18
-131.72
-149.98
-172.02
-196.69
-221.48
-242.46
-254.97
-254.68
-239.09
-208.57
-166.60
-118.74
-70.92
-27.80
8.36
37.43
60.60
79.22
94.15
105.64
113.73
118.70
121.16
121.98
121.93
121.42
120.57
119.35
117.79
116.02
114.24
112.39
110.03
106.41
100.74
92.63
82.30
70.61
58.70
47.48
37.21
27.39
17.06
5.24
-8.52
-24.02
-40.44
-56.75
-72.13
-86.31
-99.71
-113.41
-128.89
-147.59
-170.21
-195.98
-222.09
-243.94
-256.20
-254.40
-236.66
-204.45
-162.16
-115.65
-70.34
-29.86
4.42
32.89
56.70
77.05
94.63
109.75
122.48
132.80
140.74
146.38
149.89
151.46
151.34
149.74
146.89
143.05
138.60
134.02
129.76
125.98
122.35
118.09
112.24
104.10
93.52
81.09
67.91
55.21
43.91
34.25
25.69
17.08
7.09
-5.38
-20.67
-38.19
-56.66
-74.55
-90.72
-104.80
-117.34
-129.59
-143.05
-159.09
-178.60
-201.61
-226.83
-251.44
-271.13
-281.07
-277.14
-257.55
-223.61
-179.45
-130.73
-82.84
-39.38
-1.60
30.99
59.67
85.38
108.34
128.05
143.84
155.40
162.93
167.09
168.78
168.79
167.68
165.76
163.25
160.37
157.30
154.18
150.93
147.25
142.75
137.12
130.24
122.27
113.45
104.07
94.16
83.64
72.40
60.51
48.29
36.22
24.72
13.89
3.34
-7.58
-19.47
-32.57
-46.57
-60.76
-74.37
-86.94
-98.53
-109.83
-121.94
-136.17
-153.66
-174.79
-198.56
-222.24
-241.53
-251.66
-248.79
-231.42
-200.95
-161.27
-117.41
-73.91
-33.78
1.78
32.90
60.13
83.69
103.25
118.26
128.47
134.35
137.07
138.18
138.99
140.09
141.29
141.92
141.33
139.40
136.45
133.01
129.37
125.31
120.20
113.33
104.27
93.19
80.77
68.02
55.92
44.98
35.00
25.11
14.16
1.18
-14.09
-31.03
-48.42
-64.95
-79.78
-92.97
-105.37
-118.37
-133.52
-151.98
-174.18
-199.25
-224.76
-246.76
-260.54
-261.90
-248.62
-221.36
-183.56
-140.27
-96.50
-55.75
-19.43
12.78
41.95
68.92
93.73
115.73
133.99
147.87
157.34
162.93
165.43
165.72
164.45
162.14
159.25
156.27
153.65
151.61
150.00
148.21
145.42
140.93
134.50
126.47
117.55
108.49
99.75
91.33
82.84
73.80
63.84
52.95
41.36
29.42
17.35
5.06
-7.82
-21.67
-36.76
-52.86
-69.35
-85.42
-100.40
-114.04
-126.81
-139.75
-154.36
-172.12
-193.82
-218.82
-244.63
-266.94
-280.59
-281.03
-265.91
-236.06
-195.30
-149.19
-103.28
-61.45
-25.26
5.78
33.12
58.12
81.23
102.03
119.65
133.41
143.23
149.61
153.34
155.08
155.26
154.04
151.57
148.21
144.50
140.97
137.96
135.33
132.65
129.30
124.64
118.26
110.05
100.22
89.22
77.65
66.07
54.89
44.27
34.18
24.39
14.59
4.28
-7.03
-19.64
-33.48
-47.98
-62.19
-75.17
-86.44
-96.31
-105.90
-116.76
-130.34
-147.47
-167.99
-190.39
-211.80
-228.31
-235.70
-230.63
-211.82
-180.64
-140.97
-97.96
-56.44
-19.64
11.41
37.39
59.65
79.20
96.19
110.14
120.42
126.92
130.26
131.53
131.84
131.89
131.84
131.38
130.21
128.20
125.58
122.66
119.63
116.30
112.20
106.74
99.57
90.67
80.37
69.21
57.75
46.46
35.69
25.66
16.36
7.47
-1.66
-11.89
-23.97
-38.19
-54.19
-71.00
-87.46
-102.70
-116.41
-129.09
-141.83
-156.05
-173.14
-194.02
-218.59
-245.24
-270.63
-289.95
-298.08
-291.17
-268.02
-230.80
-184.39
-134.83
-87.35
-45.11
-8.88
22.21
49.57
74.18
96.28
115.53
131.52
144.05
153.21
159.35
162.95
164.47
164.31
162.91
160.64
157.88
154.93
152.00
149.09
145.99
142.30
137.57
131.44
123.82
114.89
104.94
94.21
82.88
71.06
58.91
46.73
34.88
23.57
12.71
1.77
-10.01
-23.30
-38.37
-54.82
-71.74
-88.05
-102.91
-116.11
-128.22
-140.58
-154.94
-172.93
-195.30
-221.18
-247.65
-269.98
-282.67
-281.09
-263.13
-230.03
-186.04
-137.08
-88.86
-45.45
-8.61
21.85
47.07
68.27
86.20
101.11
113.04
122.18
128.95
133.82
137.08
138.75
138.58
136.44
132.65
128.00
123.62
120.39
118.52
117.29
115.33
111.13
103.79
93.37
80.87
67.75
55.26
43.88
33.18
22.05
9.35
-5.53
-22.29
-39.85
-56.82
-72.06
-85.27
-97.13
-109.14
-123.26
-141.24
-163.88
-190.28
-217.42
-240.49
-253.94
-253.16
-236.18
-204.45
-162.48
-116.32
-71.55
-31.76
2.00
30.60
55.61
78.27
98.82
116.71
131.10
141.56
148.27
152.07
154.03
155.03
155.45
155.17
153.90
151.53
148.23
144.52
140.84
137.23
133.23
127.96
120.50
110.32
97.58
83.09
68.19
54.24
42.17
32.05
23.02
13.59
2.23
-11.98
-28.95
-47.50
-65.96
-82.84
-97.41
-109.98
-121.81
-134.62
-150.02
-169.24
-192.69
-219.56
-247.43
-272.27
-288.98
-292.58
-279.94
-251.00
-209.11
-159.95
-109.77
-63.39
-23.14
11.01
40.37
66.32
89.50
109.71
126.46
139.52
149.17
156.04
160.78
163.80
165.19
164.92
163.09
160.11
156.56
152.97
149.65
146.50
143.08
138.79
133.16
125.91
117.03
106.72
95.32
83.25
70.96
58.85
47.27
36.35
25.98
15.80
5.31
-6.09
-18.79
-32.88
-48.09
-63.77
-79.17
-93.62
-106.86
-119.16
-131.49
-145.32
-162.16
-182.88
-206.79
-231.11
-251.15
-261.40
-257.36
-237.21
-202.69
-158.52
-110.82
-65.03
-24.46
10.00
39.10
63.99
85.36
103.17
117.08
127.05
133.79
138.42
142.07
145.30
147.93
149.27
148.66
145.99
141.78
137.02
132.62
129.06
126.17
123.16
119.00
112.78
103.92
92.45
79.02
64.75
50.88
38.34
27.28
16.94
6.08
-6.56
-21.52
-38.46
-56.26
-73.55
-89.40
-103.65
-116.98
-130.54
-145.67
-163.58
-184.95
-209.63
-236.17
-261.48
-281.02
-289.83
-283.97
-262.02
-225.84
-180.10
-130.71
-82.97
-40.03
-2.68
29.97
59.23
85.84
109.67
130.04
146.20
157.92
165.49
169.59
171.05
170.62
169.02
166.85
164.67
162.86
161.55
160.56
159.34
157.16
153.34
147.47
139.60
130.31
120.35
110.42
100.87
91.55
81.92
71.40
59.70
46.93
33.67
20.61
8.20
-3.55
-15.11
-27.16
-40.30
-54.62
-69.75
-84.93
-99.45
-113.03
-125.98
-139.26
-154.20
-172.06
-193.51
-218.00
-243.32
-265.50
-279.52
-280.57
-265.74
-235.25
-192.62
-143.60
-94.33
-49.49
-11.25
20.47
47.00
69.66
89.05
105.02
117.30
125.93
131.62
135.39
138.14
140.28
141.60
141.59
139.78
136.15
131.28
126.13
121.68
118.41
116.05
113.64
109.87
103.74
94.97
84.16
72.51
61.29
51.25
42.34
33.68
23.99
12.21
-2.04
-18.23
-35.07
-51.01
-64.88
-76.38
-86.22
-95.89
-107.24
-121.89
-140.86
-164.04
-189.83
-214.92
-234.54
-243.54
-237.86
-216.18
-180.59
-136.18
-89.27
-45.33
-7.55
23.52
49.14
71.00
90.25
107.10
121.22
132.24
140.24
145.69
149.18
151.22
152.01
151.56
149.88
147.14
143.84
140.49
137.46
134.70
131.73
127.77
122.11
114.40
104.70
93.44
81.19
68.45
55.65
43.15
31.30
20.26
9.92
-0.31
-11.31
-23.99
-38.87
-55.80
-73.91
-91.95
-108.62
-123.15
-135.58
-146.83
-158.49
-172.42
-190.19
-212.45
-238.17
-264.33
-286.04
-297.57
-293.93
-272.68
-235.06
-185.88
-131.97
-80.12
-34.92
2.01
31.63
56.11
77.39
96.38
113.02
126.81
137.45
145.03
149.97
152.75
153.79
153.35
151.72
149.24
146.32
143.36
140.72
138.54
136.65
134.58
131.60
126.96
120.18
111.26
100.64
89.04
77.25
65.84
55.20
45.49
36.68
28.45
20.16
10.84
-0.44
-14.27
-30.53
-48.35
-66.42
-83.54
-98.96
-112.76
-125.81
-139.59
-155.75
-175.59
-199.29
-225.23
-249.73
-267.56
-273.33
-263.19
-236.39
-195.67
-146.50
-95.31
-47.48
-6.18
27.80
55.28
77.41
94.97
108.13
116.98
122.02
124.44
125.84
127.56
130.14
133.14
135.50
136.15
134.68
131.43
127.29
123.09
119.23
115.38
110.63
103.90
94.46
82.16
67.72
52.50
38.01
25.32
14.64
5.15
-4.59
-15.96
-29.69
-45.54
-62.44
-79.08
-94.39
-108.06
-120.62
-133.22
-147.39
-164.69
-186.00
-211.12
-238.15
-263.35
-281.65
-287.89
-278.38
-252.32
-212.24
-163.31
-111.72
-62.86
-19.88
16.49
47.20
73.68
96.93
117.08
133.74
146.48
155.25
160.49
162.98
163.55
162.98
161.86
160.57
159.26
157.85
156.10
153.72
150.40
145.89
140.02
132.72
124.07
114.42
104.28
94.11
84.11
74.20
64.05
53.38
42.14
30.47
18.53
6.25
-6.68
-20.63
-35.68
-51.51
-67.49
-82.97
-97.61
-111.50
-125.18
-139.39
-155.04
-173.11
-194.41
-218.98
-245.32
-270.02
-287.97
-293.57
-282.68
-254.22
-210.99
-158.82
-104.70
-54.54
-11.60
23.79
53.14
78.35
100.45
119.27
133.96
143.92
149.45
151.78
152.50
152.90
153.38
153.64
153.05
151.18
148.08
144.25
140.23
136.34
132.44
128.05
122.50
115.20
105.87
94.71
82.40
69.85
57.93
47.15
37.43
28.18
18.57
7.89
-4.25
-17.75
-32.10
-46.44
-59.88
-71.77
-82.02
-91.20
-100.58
-111.67
-125.91
-144.21
-166.45
-191.18
-215.37
-234.56
-243.66
-238.40
-216.89
-180.58
-134.14
-83.96
-36.15
5.25
38.91
65.59
86.87
104.01
117.38
126.81
132.23
134.20
133.94
132.88
132.07
131.82
131.64
130.72
128.44
124.83
120.51
116.36
112.87
109.85
106.26
100.74
92.19
80.30
65.76
50.06
34.93
21.73
10.95
1.92
-6.89
-17.24
-30.49
-46.92
-65.62
-85.01
-103.37
-119.62
-133.59
-146.00
-158.22
-171.96
-188.83
-209.78
-234.47
-260.56
-283.63
-297.92
-297.95
-280.42
-245.56
-197.22
-141.67
-85.66
-34.47
9.12
44.73
73.49
96.97
116.29
131.99
144.19
152.94
158.57
161.69
163.07
163.33
162.87
161.77
159.99
157.44
154.21
150.55
146.83
143.32
140.13
136.94
133.00
127.29
118.90
107.44
93.35
77.82
62.38
48.23
35.77
24.46
13.20
0.79
-13.55
-29.91
-47.74
-66.10
-83.97
-100.56
-115.56
-129.35
-142.88
-157.64
-175.15
-196.42
-221.21
-247.59
-271.74
-288.59
-292.99
-281.37
-252.98
-210.43
-159.09
-105.43
-55.12
-11.61
24.20
53.31
77.47
98.05
115.63
130.19
141.51
149.66
155.05
158.27
159.78
159.81
158.40
155.64
151.90
147.72
143.66
139.94
136.12
131.26
124.28
114.48
102.00
87.84
73.40
59.92
47.84
36.66
25.27
12.56
-1.97
-18.00
-34.55
-50.51
-65.15
-78.47
-91.24
-104.87
-121.00
-140.95
-164.97
-191.60
-217.36
-237.21
-245.72
-238.85
-215.43
-177.74
-130.95
-81.34
-34.46
6.24
39.73
66.66
88.26
105.51
118.75
128.10
133.97
137.19
138.90
140.02
140.88
141.12
140.09
137.40
133.24
128.42
123.89
120.13
116.80
112.77
106.67
97.53
85.29
70.93
55.99
41.91
29.42
18.26
7.32
-4.78
-19.08
-35.78
-54.12
-72.72
-90.12
-105.45
-118.81
-131.38
-145.09
-161.97
-183.37
-209.10
-236.93
-262.60
-280.59
-285.51
-273.87
-245.33
-202.89
-152.10
-99.23
-49.53
-6.01
30.58
61.02
86.50
107.83
125.22
138.57
147.95
153.78
156.82
157.80
157.21
155.16
151.61
146.74
141.14
135.70
131.23
128.00
125.43
122.22
116.88
108.44
96.86
83.15
68.81
55.29
43.30
32.57
22.09
10.54
-3.03
-18.76
-35.94
-53.36
-69.83
-84.81
-98.68
-112.59
-128.15
-146.81
-169.21
-194.42
-219.70
-240.54
-251.65
-248.50
-229.00
-194.43
-149.29
-99.81
-51.99
-9.89
25.01
53.19
75.99
94.50
109.05
119.50
125.79
128.43
128.41
126.97
125.15
123.51
122.16
120.90
119.47
117.60
115.08
111.74
107.42
101.99
95.46
87.93
79.51
70.18
59.67
47.66
33.89
18.43
1.86
-14.92
-31.03
-45.88
-59.38
-71.99
-84.56
-98.15
-113.96
-133.10
-156.01
-181.83
-207.78
-229.30
-240.94
-238.10
-218.91
-184.99
-141.14
-93.64
-48.21
-8.39
24.73
51.89
74.38
93.13
108.40
120.08
128.25
133.48
136.64
138.59
139.76
140.09
139.30
137.23
134.11
130.58
127.30
124.53
121.85
118.21
112.46
103.85
92.57
79.67
66.59
54.54
43.85
33.83
23.09
10.26
-5.34
-23.26
-42.23
-60.58
-77.17
-91.77
-105.24
-119.16
-135.35
-155.17
-179.02
-205.77
-232.46
-254.52
-266.61
-264.18
-245.07
-210.54
-165.11
-115.09
-66.60
-23.71
12.14
41.64
66.34
87.47
105.40
119.89
130.68
137.96
142.47
145.14
146.70
147.29
146.63
144.38
140.53
135.74
131.08
127.63
125.73
124.79
123.31
119.59
112.42
101.62
88.18
73.73
60.05
48.37
39.04
31.37
23.94
15.07
3.45
-11.34
-28.58
-46.66
-63.79
-78.73
-91.30
-102.41
-113.65
-126.81
-143.29
-163.71
-187.39
-211.96
-233.39
-246.62
-246.94
-231.64
-201.21
-159.28
-111.54
-63.88
-20.73
15.75
45.34
68.85
87.19
100.92
110.39
116.06
118.79
119.81
120.28
120.95
121.89
122.64
122.57
121.35
119.09
116.24
113.22
110.08
106.33
101.27
94.35
85.57
75.51
65.09
55.07
45.71
36.60
26.93
15.85
2.91
-11.77
-27.47
-43.20
-58.12
-71.88
-84.83
-98.02
-112.88
-130.88
-152.71
-177.61
-202.89
-224.12
-236.10
-234.54
-217.63
-186.89
-146.77
-103.13
-61.24
-24.30
6.99
33.71
57.49
79.32
99.18
116.29
129.78
139.29
145.19
148.36
149.78
150.11
149.49
147.73
144.61
140.28
135.39
130.88
127.47
125.16
123.09
119.71
113.54
103.80
90.83
75.96
61.03
47.56
36.26
26.80
18.06
8.56
-2.91
-16.97
-33.32
-50.98
-68.57
-84.83
-99.07
-111.49
-123.11
-135.50
-150.39
-169.11
-191.90
-217.41
-242.39
-262.04
-271.07
-265.34
-243.35
-206.96
-160.87
-111.10
-63.06
-20.19
16.40
47.30
73.65
96.15
114.85
129.36
139.48
145.59
148.69
149.97
150.38
150.23
149.24
146.91
143.00
137.78
132.01
126.55
121.89
117.83
113.55
107.94
100.15
89.93
77.78
64.80
52.22
40.98
31.29
22.62
13.92
4.02
-7.83
-21.66
-36.65
-51.55
-65.06
-76.42
-85.69
-93.83
-102.43
-113.27
-127.86
-146.87
-169.59
-193.58
-214.80
-228.30
-229.53
-215.84
-187.54
-147.93
-102.33
-56.37
-14.37
21.48
50.91
74.67
93.61
108.10
118.18
124.01
126.28
126.21
125.24
124.49
124.38
124.53
124.03
122.02
118.16
112.90
107.24
102.23
98.31
95.00
91.02
84.92
75.80
63.76
49.91
35.78
22.68
11.22
1.01
-8.98
-19.94
-32.74
-47.54
-63.72
-80.20
-95.87
-110.17
-123.30
-136.16
-149.96
-165.96
-184.95
-206.99
-231.00
-254.47
-273.37
-282.91
-278.77
-258.85
-224.21
-178.96
-128.92
-79.68
-34.92
4.03
37.58
66.78
92.24
113.85
131.17
143.87
152.12
156.76
158.93
159.72
159.90
159.74
158.98
157.20
154.15
150.05
145.60
141.45
137.86
134.33
129.75
122.91
113.17
100.78
86.85
72.87
60.05
48.85
38.76
28.49
16.56
1.94
-15.37
-34.35
-53.21
-70.24
-84.46
-96.04
-106.25
-116.93
-130.01
-147.09
-168.92
-194.92
-222.68
-247.90
-264.95
-268.47
-255.13
-225.04
-181.91
-131.87
-81.46
-35.72
2.79
33.88
58.75
78.89
95.35
108.60
118.79
126.15
131.08
134.10
135.71
136.02
134.98
132.50
128.76
124.36
120.12
116.70
114.22
112.00
108.89
103.75
96.02
85.93
74.40
62.52
51.05
40.05
28.98
16.98
3.38
-11.92
-28.37
-44.97
-60.68
-75.00
-88.19
-101.29
-115.85
-133.44
-154.99
-180.19
-206.99
-231.58
-248.92
-254.02
-243.55
-217.13
-177.70
-130.64
-82.02
-36.74
2.60
35.65
63.35
86.79
106.44
122.14
133.66
141.15
145.41
147.53
148.51
148.87
148.59
147.31
144.79
141.17
137.06
133.27
130.40
128.27
125.94
121.96
114.98
104.45
90.91
75.83
61.01
47.80
36.62
26.75
16.77
5.13
-9.23
-26.41
-45.47
-64.80
-82.73
-98.16
-111.01
-122.32
-133.91
-147.88
-165.93
-188.81
-215.64
-243.57
-267.94
-283.04
-283.71
-267.01
-233.50
-187.21
-134.41
-81.60
-33.62
7.27
41.02
68.77
91.70
110.40
125.03
135.75
143.09
147.95
151.27
153.62
155.09
155.31
153.86
150.67
146.21
141.33
137.05
133.90
131.67
129.36
125.46
118.66
108.38
95.07
80.12
65.31
52.02
40.74
30.83
20.88
9.35
-4.71
-21.18
-38.99
-56.53
-72.48
-86.31
-98.50
-110.35
-123.49
-139.38
-158.92
-181.92
-206.73
-229.99
-246.92
-252.37
-242.47
-216.17
-175.86
-126.82
-75.60
-27.85
12.98
45.98
72.01
92.49
108.38
120.04
127.47
130.87
131.03
129.18
126.66
124.45
122.90
121.84
120.79
119.37
117.32
114.55
110.84
105.79
98.96
90.11
79.38
67.39
54.95
42.70
30.83
19.00
6.60
-6.95
-21.90
-37.97
-54.50
-70.63
-85.68
-99.49
-112.64
-126.50
-142.75
-162.71
-186.35
-211.68
-234.74
-250.41
-253.84
-241.94
-214.55
-174.50
-126.78
-77.06
-30.16
10.94
45.23
73.08
95.32
112.60
125.29
133.70
138.44
140.58
141.41
141.93
142.53
142.90
142.40
140.51
137.22
133.01
128.70
124.99
122.02
119.30
115.76
110.19
101.76
90.47
77.17
63.25
49.89
37.55
25.74
13.38
-0.63
-16.73
-34.49
-52.79
-70.33
-86.23
-100.29
-113.17
-126.24
-141.18
-159.59
-182.39
-209.17
-237.66
-263.74
-282.02
-287.20
-275.68
-246.96
-203.94
-152.32
-98.77
-48.94
-6.06
29.32
58.57
83.52
105.32
124.02
139.00
149.66
156.07
158.91
159.32
158.27
156.30
153.59
150.19
146.27
142.25
138.63
135.79
133.73
132.01
129.75
125.92
119.66
110.65
99.20
86.28
73.18
61.08
50.57
41.46
32.83
23.35
11.62
-3.15
-20.88
-40.48
-60.22
-78.32
-93.67
-106.27
-117.26
-128.48
-141.90
-159.08
-180.64
-205.86
-232.17
-255.16
-269.32
-269.34
-252.10
-217.93
-170.91
-117.54
-64.71
-17.57
21.35
52.00
75.70
94.01
108.00
118.34
125.52
130.21
133.22
135.26
136.68
137.36
136.82
134.64
130.81
125.99
121.28
117.79
115.97
115.23
114.08
110.69
103.77
93.15
79.80
65.38
51.45
38.78
27.12
15.46
2.64
-12.09
-28.67
-46.21
-63.44
-79.28
-93.45
-106.65
-120.44
-136.73
-157.06
-181.80
-209.67
-237.44
-260.32
-272.88
-270.63
-251.45
-216.59
-170.44
-119.22
-68.98
-23.96
14.16
45.88
72.62
95.57
115.13
131.00
142.82
150.55
154.74
156.35
156.37
155.55
154.34
152.85
150.98
148.63
145.87
142.82
139.71
136.48
132.75
127.76
120.76
111.25
99.38
85.90
71.92
58.53
46.43
35.66
25.72
15.61
4.21
-9.30
-25.14
-42.77
-61.03
-78.54
-94.25
-107.86
-119.98
-131.95
-145.46
-162.11
-182.92
-207.77
-234.94
-260.81
-280.20
-287.53
-278.50
-251.65
-209.21
-156.48
-100.23
-46.67
0.13
38.74
69.79
94.82
115.17
131.50
143.90
152.33
157.10
159.00
159.09
158.24
156.91
155.00
152.16
148.20
143.37
138.40
134.14
131.08
128.99
126.78
122.90
115.94
105.21
91.08
74.92
58.59
43.73
31.15
20.58
10.82
0.27
-12.38
-27.54
-44.63
-62.35
-79.14
-93.89
-106.36
-117.24
-127.95
-140.27
-155.85
-175.64
-199.30
-224.67
-247.70
-263.01
-265.31
-251.06
-219.91
-175.02
-122.22
-68.20
-18.54
23.49
57.05
82.95
102.48
116.66
126.00
130.94
132.17
130.83
128.29
125.71
123.68
122.14
120.67
118.81
116.29
113.02
109.02
104.17
98.29
91.17
82.78
73.23
62.73
51.41
39.21
25.91
11.31
-4.63
-21.64
-39.12
-56.33
-72.63
-87.65
-101.62
-115.30
-130.01
-147.27
-168.29
-193.27
-220.73
-247.05
-267.02
-274.98
-266.61
-240.57
-199.22
-148.04
-93.85
-42.79
1.31
37.32
66.16
89.49
108.69
124.37
136.53
145.07
150.16
152.37
152.45
151.10
148.83
145.91
142.51
138.81
134.97
131.04
126.86
122.02
115.92
108.01
98.09
86.37
73.40
59.82
45.97
31.82
16.98
1.05
-16.08
-34.02
-52.01
-69.16
-84.93
-99.43
-113.44
-128.38
-145.91
-167.41
-193.19
-221.80
-249.56
-270.99
-280.15
-272.55
-246.85
-205.52
-154.13
-99.51
-47.65
-2.22
35.62
66.49
91.55
111.67
127.16
138.18
145.18
149.02
150.78
151.33
151.05
149.82
147.41
143.80
139.44
135.04
131.23
128.11
125.11
121.13
115.00
105.97
94.09
80.24
65.81
52.16
40.01
29.17
18.57
6.83
-7.08
-23.33
-41.09
-59.00
-75.73
-90.68
-104.22
-117.59
-132.47
-150.49
-172.44
-197.66
-223.60
-245.75
-258.56
-257.03
-238.47
-203.71
-157.07
-105.05
-54.12
-8.93
28.52
58.52
82.36
101.24
115.60
125.31
130.32
131.14
129.02
125.61
122.47
120.46
119.62
119.30
118.54
116.55
112.97
107.97
101.97
95.40
88.48
81.07
72.82
63.27
52.07
39.13
24.64
9.16
-6.58
-21.88
-36.27
-49.67
-62.45
-75.36
-89.38
-105.63
-125.12
-148.27
-174.26
-200.55
-222.82
-235.85
-235.04
-218.10
-186.14
-143.45
-96.14
-50.09
-9.25
24.96
53.21
77.05
97.72
115.54
130.03
140.55
146.88
149.53
149.56
148.16
146.20
144.00
141.55
138.66
135.24
131.32
126.91
121.85
115.74
108.21
99.08
88.58
77.24
65.62
53.98
42.14
29.57
15.70
0.30
-16.31
-33.31
-49.68
-64.58
-77.75
-89.72
-101.85
-116.03
-134.10
-157.00
-183.92
-211.76
-235.44
-249.12
-247.97
-229.92
-196.44
-152.12
-103.06
-54.89
-11.28
26.46
58.68
86.28
109.74
128.92
143.38
153.04
158.55
161.13
162.05
162.07
161.21
158.98
154.88
148.86
141.65
134.37
128.13
123.51
120.19
117.00
112.41
105.16
94.69
81.53
66.99
52.69
39.89
28.94
19.26
9.59
-1.35
-14.28
-29.02
-44.67
-59.99
-73.94
-86.16
-97.05
-107.58
-119.12
-133.08
-150.47
-171.56
-195.27
-218.86
-238.09
-248.04
-244.61
-225.99
-193.49
-151.21
-104.74
-59.43
-18.87
15.47
43.78
66.99
85.82
100.50
110.96
117.32
120.20
120.70
120.03
119.12
118.31
117.39
115.99
113.90
111.29
108.66
106.39
104.39
101.96
98.06
91.74
82.71
71.54
59.46
47.84
37.58
28.69
20.41
11.59
1.26
-10.88
-24.39
-38.28
-51.55
-63.56
-74.32
-84.47
-95.13
-107.62
-123.06
-141.95
-163.60
-185.75
-204.53
-215.26
-213.78
-197.96
-168.63
-129.54
-86.11
-43.73
-6.20
24.91
49.89
69.92
86.00
98.53
107.40
112.55
114.33
113.65
111.73
109.59
107.82
106.46
105.18
103.53
101.21
98.07
94.14
89.42
83.84
77.22
69.41
60.38
50.29
39.39
27.85
15.68
2.71
-11.18
-25.85
-40.70
-54.94
-67.90
-79.44
-90.17
-101.38
-114.66
-131.43
-152.29
-176.54
-201.73
-223.84
-238.03
-239.96
-227.29
-200.67
-163.60
-121.30
-78.96
-40.20
-6.49
22.50
47.83
70.31
90.11
106.89
120.25
130.07
136.69
140.63
142.43
142.44
140.84
137.78
133.56
128.71
123.94
119.88
116.92
114.79
112.66
109.20
103.15
93.75
81.19
66.69
52.06
38.96
28.31
19.85
12.22
3.69
-7.13
-20.63
-36.11
-52.17
-67.37
-81.01
-93.34
-105.54
-119.23
-135.97
-156.62
-180.86
-206.80
-230.90
-248.50
-254.97
-247.05
-224.12
-188.50
-144.88
-98.73
-54.72
-15.65
17.73
46.09
70.46
91.52
109.25
123.25
133.25
139.45
142.66
144.04
144.56
144.74
144.45
143.26
140.76
136.92
132.22
127.32
122.78
118.70
114.65
109.85
103.48
95.04
84.54
72.56
60.08
48.16
37.52
28.28
19.98
11.65
2.28
-8.79
-21.66
-35.84
-50.43
-64.48
-77.33
-88.85
-99.56
-110.47
-122.89
-138.09
-156.85
-179.05
-203.19
-226.12
-243.35
-250.05
-242.46
-219.32
-182.62
-137.09
-88.75
-42.99
-3.14
29.94
57.10
79.65
98.37
113.26
123.91
130.22
132.80
132.86
131.77
130.44
129.12
127.50
125.21
122.15
118.67
115.32
112.43
109.72
106.22
100.69
92.14
80.48
66.62
52.22
38.94
27.70
18.24
9.26
-0.93
-13.56
-28.87
-45.97
-63.31
-79.43
-93.62
-106.12
-118.20
-131.65
-148.30
-169.20
-194.01
-220.45
-244.35
-260.41
-263.62
-250.88
-222.20
-180.80
-132.18
-82.32
-36.05
3.96
37.16
64.39
86.75
105.03
119.45
130.07
137.10
141.25
143.53
144.93
146.03
146.84
146.92
145.78
143.21
139.51
135.37
131.49
128.18
125.16
121.59
116.42
108.84
98.64
86.35
73.15
60.35
48.96
39.21
30.49
21.49
10.83
-2.41
-18.25
-35.85
-53.80
-70.77
-85.98
-99.46
-111.98
-124.86
-139.64
-157.73
-179.86
-205.40
-231.78
-254.45
-267.76
-266.58
-248.14
-213.29
-166.41
-114.01
-62.63
-16.97
20.93
51.37
75.81
95.75
112.04
124.86
134.24
140.41
143.97
145.77
146.55
146.73
146.38
145.34
143.43
140.67
137.33
133.76
130.24
126.87
123.39
119.24
113.77
106.46
97.12
86.05
73.91
61.46
49.38
37.95
27.06
16.22
4.70
-8.16
-22.77
-38.97
-56.01
-72.65
-87.62
-100.16
-110.37
-119.36
-128.91
-140.98
-157.15
-178.03
-202.90
-229.38
-253.34
-269.50
-272.60
-259.03
-228.30
-183.57
-130.84
-77.10
-28.22
12.53
44.69
69.58
89.07
104.48
116.25
124.37
129.02
130.91
131.20
131.07
131.20
131.51
131.37
130.16
127.74
124.58
121.55
119.24
117.44
115.12
110.79
103.25
92.26
78.68
64.14
50.32
38.23
27.85
18.22
7.91
-4.34
-19.08
-35.96
-53.85
-71.28
-87.02
-100.63
-112.62
-124.32
-137.55
-154.13
-175.21
-200.63
-228.30
-254.16
-272.61
-278.08
-266.70
-237.84
-194.55
-142.68
-89.01
-39.13
3.70
38.80
67.08
89.90
108.27
122.57
133.01
139.96
144.22
146.83
148.70
150.24
151.31
151.37
149.92
146.80
142.40
137.55
133.05
129.31
126.00
122.13
116.45
107.99
96.52
82.74
67.99
53.75
41.02
29.91
19.66
8.95
-3.51
-18.43
-35.57
-53.85
-71.75
-87.91
-101.68
-113.48
-124.65
-137.09
-152.80
-173.11
-198.14
-226.13
-253.30
-274.27
-283.34
-276.15
-251.30
-211.01
-160.57
-106.63
-55.23
-10.14
27.40
58.15
83.54
104.63
121.73
134.63
143.23
148.03
150.14
150.88
151.22
151.40
150.99
149.35
146.18
141.80
137.07
132.86
129.52
126.63
123.07
117.55
109.16
97.80
84.30
70.09
56.70
45.10
35.26
26.14
16.06
3.46
-12.40
-30.98
-50.72
-69.60
-86.03
-99.40
-110.27
-120.26
-131.45
-145.87
-164.92
-188.75
-215.62
-241.73
-261.63
-269.51
-260.97
-234.61
-192.82
-141.14
-86.53
-35.29
8.56
43.69
70.86
91.61
107.33
118.78
126.31
130.36
131.82
131.83
131.50
131.48
131.77
131.88
131.17
129.21
125.91
121.41
115.90
109.46
102.03
93.49
83.78
72.98
61.19
48.53
34.93
20.31
4.58
-12.12
-29.40
-46.63
-63.17
-78.65
-93.15
-107.37
-122.48
-139.92
-160.91
-185.75
-213.13
-239.73
-260.52
-269.95
-263.65
-240.14
-201.52
-153.00
-101.09
-51.66
-8.30
27.94
57.87
82.87
103.93
121.32
134.84
144.36
150.17
152.92
153.44
152.45
150.43
147.71
144.60
141.46
138.61
136.16
133.92
131.22
127.15
120.86
111.87
100.37
87.14
73.27
59.69
46.76
34.17
21.14
6.88
-8.95
-26.04
-43.55
-60.51
-76.28
-90.88
-105.09
-120.32
-138.20
-159.97
-185.62
-213.24
-238.76
-256.72
-261.65
-249.98
-221.39
-179.16
-129.20
-78.04
-30.98
9.15
42.05
68.97
91.43
110.30
125.63
137.05
144.38
148.17
149.53
149.79
149.92
150.13
149.99
148.83
146.25
142.48
138.25
134.39
131.32
128.69
125.46
120.35
112.40
101.42
88.22
74.23
61.00
49.56
40.07
31.76
23.20
12.96
0.11
-15.35
-32.51
-49.92
-66.15
-80.38
-92.71
-104.17
-116.43
-131.34
-150.33
-173.85
-200.74
-227.92
-250.55
-262.97
-260.28
-240.06
-203.47
-155.12
-101.72
-49.94
-4.53
32.53
61.63
84.30
101.87
114.91
123.44
127.60
128.21
126.74
124.81
123.56
123.21
123.23
122.79
121.31
118.78
115.56
112.00
108.10
103.35
97.07
88.78
78.57
67.10
55.28
43.78
32.63
21.22
8.65
-5.74
-21.86
-38.91
-55.69
-71.17
-85.02
-97.82
-110.97
-126.25
-145.35
-169.13
-196.90
-225.81
-250.98
-266.44
-266.82
-249.27
-214.79
-168.01
-115.77
-64.86
-20.07
16.71
46.12
70.02
90.23
107.63
122.21
133.55
141.45
146.20
148.55
149.32
148.98
147.59
144.95
141.07
136.50
132.13
128.88
127.04
125.93
124.03
119.61
111.52
99.73
85.42
70.47
56.74
45.31
36.06
27.69
18.37
6.40
-8.94
-27.14
-46.67
-65.57
-82.33
-96.49
-108.76
-120.81
-134.80
-152.75
-175.76
-203.26
-232.44
-258.28
-274.47
-275.23
-257.41
-221.78
-173.09
-118.51
-65.29
-18.58
19.59
49.88
74.29
94.71
112.06
126.30
137.03
144.16
148.26
150.33
151.34
151.79
151.61
150.32
147.48
143.13
137.91
132.77
128.51
125.30
122.48
118.71
112.58
103.23
90.76
76.35
61.76
48.62
37.77
28.87
20.61
11.23
-0.67
-15.54
-32.68
-50.65
-67.82
-83.08
-96.15
-107.70
-119.03
-131.76
-147.43
-167.09
-190.68
-216.53
-240.97
-258.74
-264.14
-252.98
-224.20
-180.63
-128.21
-74.12
-24.57
16.88
49.48
74.46
93.62
108.29
118.96
125.75
129.03
129.69
128.98
128.00
127.32
126.83
126.08
124.72
122.68
120.22
117.50
114.37
110.20
104.19
95.75
84.88
72.24
58.94
46.07
34.15
22.90
11.40
-1.50
-16.56
-33.65
-51.79
-69.57
-85.86
-100.37
-113.94
-128.21
-145.11
-166.13
-191.58
-220.00
-247.89
-270.03
-280.63
-274.97
-251.19
-211.15
-160.10
-104.96
-52.18
-6.03
31.98
62.47
86.89
106.52
121.96
133.41
141.18
145.95
148.73
150.49
151.77
152.48
152.11
150.11
146.38
141.44
136.31
131.93
128.69
126.02
122.51
116.58
107.22
94.55
79.82
64.89
51.31
39.60
29.05
18.12
5.17
-10.64
-29.00
-48.53
-67.41
-84.23
-98.50
-110.97
-123.33
-137.71
-156.04
-179.32
-206.96
-236.18
-262.18
-278.86
-280.54
-263.84
-229.13
-180.65
-125.20
-69.95
-20.34
21.10
54.44
81.17
102.84
120.24
133.47
142.49
147.75
150.32
151.58
152.60
153.76
154.58
154.16
151.79
147.37
141.59
135.54
130.27
126.10
122.52
118.35
112.28
103.46
91.94
78.56
64.69
51.63
40.11
30.00
20.35
9.83
-2.80
-18.05
-35.51
-53.89
-71.52
-86.99
-99.72
-110.32
-120.46
-132.42
-148.38
-169.63
-195.90
-224.86
-252.15
-272.01
-278.62
-267.82
-238.63
-193.95
-139.85
-83.79
-32.33
10.62
44.25
70.07
90.32
106.67
119.70
129.16
134.85
137.15
137.01
135.57
133.69
131.69
129.48
126.85
123.79
120.39
116.69
112.48
107.33
100.77
92.48
82.58
71.46
59.62
47.37
34.67
21.19
6.53
-9.49
-26.66
-44.37
-61.79
-78.28
-93.58
-108.00
-122.46
-138.34
-157.16
-180.06
-206.89
-235.57
-261.83
-279.92
-284.14
-270.84
-239.83
-194.70
-141.65
-87.48
-37.60
5.09
40.11
68.47
91.55
110.27
125.05
136.12
143.88
149.02
152.33
154.38
155.36
155.11
153.45
150.49
146.73
142.88
139.50
136.61
133.50
128.99
121.99
112.01
99.50
85.73
72.21
59.98
49.22
39.09
28.21
15.34
-0.06
-17.57
-35.95
-53.82
-70.11
-84.64
-98.12
-112.03
-128.14
-148.04
-172.35
-200.01
-227.85
-250.87
-263.23
-260.16
-239.57
-203.13
-155.76
-104.12
-54.41
-10.75
25.46
54.85
78.85
98.63
114.62
126.81
135.32
140.73
144.06
146.38
148.29
149.73
150.12
148.76
145.35
140.24
134.45
129.14
125.13
122.37
119.93
116.30
110.08
100.62
88.34
74.61
61.12
49.15
39.01
29.92
20.38
8.91
-5.28
-21.93
-39.84
-57.42
-73.37
-87.28
-99.67
-111.89
-125.60
-142.34
-162.98
-187.27
-213.36
-237.56
-254.75
-259.59
-248.15
-219.59
-176.76
-125.51
-72.80
-24.56
15.85
47.88
72.86
92.52
107.92
119.21
126.14
128.71
127.71
124.60
121.03
118.25
116.77
116.31
116.15
115.52
113.81
110.74
106.24
100.38
93.29
85.06
75.76
65.40
53.89
41.09
26.95
11.56
-4.74
-21.42
-37.86
-53.60
-68.56
-83.08
-97.89
-114.01
-132.47
-154.01
-178.65
-205.15
-230.60
-250.57
-260.04
-254.77
-233.02
-196.36
-149.45
-98.59
-49.71
-6.73
28.98
58.03
81.85
101.56
117.52
129.66
137.95
142.82
145.08
145.65
145.11
143.70
141.35
138.07
134.09
129.86
125.81
121.99
117.95
112.90
106.00
96.81
85.54
72.96
59.97
47.24
34.83
22.21
8.63
-6.47
-23.09
-40.67
-58.27
-75.06
-90.66
-105.42
-120.37
-137.05
-156.97
-180.91
-208.04
-235.56
-258.83
-272.27
-271.02
-252.59
-217.84
-170.85
-117.68
-64.56
-16.22
24.88
58.30
84.79
105.37
120.86
131.90
139.21
143.81
146.88
149.37
151.72
153.67
154.52
153.60
150.60
145.79
139.95
134.07
128.92
124.75
121.14
117.17
111.74
104.08
94.08
82.39
70.02
57.97
46.67
35.86
24.71
12.27
-2.09
-18.40
-35.96
-53.63
-70.22
-84.99
-98.10
-110.62
-124.27
-140.83
-161.57
-186.56
-214.28
-241.43
-263.27
-274.54
-270.78
-249.92
-213.25
-165.30
-112.55
-61.38
-16.31
20.88
50.63
74.39
93.35
107.94
118.14
124.12
126.72
127.35
127.41
127.70
128.19
128.24
127.21
124.95
122.02
119.25
117.27
116.08
114.79
112.10
106.84
98.61
87.93
76.04
64.33
53.62
43.81
33.94
22.70
9.17
-6.74
-24.16
-41.65
-57.87
-72.21
-85.01
-97.53
-111.55
-128.79
-150.31
-175.77
-202.96
-227.70
-244.61
-248.41
-235.79
-206.68
-164.45
-114.91
-64.39
-17.93
21.71
54.02
79.69
99.69
114.63
124.83
130.80
133.45
134.16
134.33
134.83
135.86
136.90
137.14
135.91
133.01
128.78
123.94
119.23
115.00
110.97
106.25
99.74
90.66
79.07
65.96
52.77
40.65
29.84
19.43
7.89
-6.17
-23.16
-42.29
-61.90
-80.23
-96.09
-109.37
-121.00
-132.74
-146.68
-164.65
-187.58
-214.77
-243.41
-268.67
-284.64
-285.89
-269.34
-235.50
-188.42
-134.62
-80.95
-32.65
7.82
40.57
67.23
89.58
108.59
124.32
136.43
144.86
150.15
153.20
154.97
155.96
156.14
155.18
152.86
149.29
144.98
140.58
136.59
133.06
129.62
125.42
119.50
111.07
99.85
86.29
71.52
57.04
44.12
33.31
24.05
14.91
4.18
-9.44
-26.15
-44.98
-64.12
-81.70
-96.56
-108.64
-119.07
-129.76
-142.76
-159.79
-181.59
-207.46
-234.88
-259.58
-276.07
-279.09
-265.16
-234.07
-189.10
-136.22
-82.18
-32.52
9.67
43.75
70.71
91.92
108.30
120.26
128.11
132.51
134.58
135.52
136.20
136.81
136.96
136.07
133.90
130.68
126.98
123.37
120.03
116.59
112.24
106.19
97.93
87.57
75.68
63.08
50.36
37.66
24.66
10.84
-4.13
-20.05
-36.21
-51.68
-65.72
-78.24
-89.95
-102.27
-116.93
-135.52
-158.83
-186.16
-214.95
-240.76
-258.08
-261.82
-248.94
-219.66
-177.62
-128.70
-79.15
-33.77
5.10
37.43
64.41
87.36
106.85
122.72
134.53
142.18
146.22
147.60
147.32
146.00
143.81
140.64
136.54
131.96
127.63
124.21
121.87
119.94
117.07
111.66
102.59
89.71
74.08
57.63
42.42
29.79
19.77
11.02
1.39
-11.10
-27.35
-46.77
-67.49
-87.24
-104.30
-118.26
-130.15
-142.10
-156.58
-175.57
-199.63
-227.29
-254.79
-276.62
-286.82
-280.74
-256.81
-217.20
-167.22
-113.62
-62.43
-17.40
20.33
51.53
77.61
99.62
117.80
131.96
142.06
148.57
152.53
155.13
157.17
158.78
159.45
158.51
155.59
150.97
145.51
140.27
135.95
132.46
128.98
124.22
117.03
106.80
93.80
79.09
64.04
49.94
37.40
26.13
14.98
2.53
-12.30
-29.64
-48.57
-67.45
-84.68
-99.43
-111.98
-123.61
-136.20
-151.62
-171.13
-194.97
-221.82
-248.54
-270.42
-282.07
-278.86
-258.59
-222.40
-174.65
-121.54
-69.23
-22.15
17.69
50.37
77.04
98.87
116.50
130.07
139.55
145.17
147.53
147.51
146.00
143.76
141.24
138.75
136.50
134.57
132.89
131.11
128.58
124.46
118.03
108.92
97.34
84.02
69.97
56.03
42.62
29.53
16.12
1.74
-13.97
-30.74
-47.87
-64.55
-80.25
-95.06
-109.71
-125.50
-143.84
-165.75
-191.12
-218.03
-242.60
-259.48
-263.40
-250.89
-221.78
-179.48
-129.89
-79.35
-32.69
7.81
42.14
71.46
96.79
118.32
135.62
148.16
156.01
159.95
161.28
161.30
160.80
159.97
158.52
156.11
152.59
148.31
143.87
139.86
136.40
132.99
128.59
122.00
112.45
99.90
85.20
69.76
55.05
42.01
30.76
20.49
9.74
-2.95
-18.48
-36.69
-56.35
-75.69
-93.07
-107.80
-120.39
-132.37
-145.78
-162.50
-183.65
-209.16
-237.31
-264.59
-285.95
-295.79
-289.60
-265.48
-225.20
-173.77
-117.95
-64.09
-16.37
23.78
57.16
85.49
110.14
131.44
148.84
161.55
169.25
172.51
172.63
171.19
169.41
167.81
166.29
164.47
162.07
159.16
155.96
152.66
149.08
144.69
138.79
130.83
120.65
108.54
95.09
81.09
67.26
54.13
41.90
30.42
19.13
7.21
-6.18
-21.58
-38.97
-57.62
-76.32
-93.65
-108.67
-121.23
-132.15
-143.05
-155.84
-172.26
-193.18
-218.16
-244.98
-269.64
-286.93
-291.53
-279.67
-250.45
-206.46
-153.13
-97.14
-44.43
1.19
38.41
67.89
91.03
109.11
122.87
132.70
139.03
142.57
144.33
145.17
145.57
145.44
144.36
141.97
138.34
134.00
129.77
126.20
123.15
119.69
114.50
106.41
95.11
81.31
66.43
51.98
38.84
26.86
15.07
2.19
-12.71
-29.71
-48.05
-66.41
-83.52
-98.73
-112.26
-125.28
-139.57
-157.00
-178.74
-204.54
-232.16
-257.38
-274.77
-279.12
-267.02
-238.16
-195.62
-144.93
-92.35
-43.08
-0.09
35.98
65.99
91.09
111.97
128.71
141.11
149.35
154.18
156.72
157.99
158.50
158.22
156.82
154.12
150.40
146.29
142.49
139.26
136.22
132.33
126.37
117.35
105.02
90.08
73.98
58.42
44.68
33.11
22.88
12.35
-0.25
-16.04
-34.93
-55.69
-76.43
-95.30
-111.36
-124.91
-137.43
-151.13
-168.25
-190.15
-216.52
-244.84
-270.46
-287.49
-290.32
-275.44
-242.83
-196.11
-141.47
-85.73
-34.36
9.68
45.96
75.61
100.07
120.28
136.44
148.52
156.70
161.66
164.36
165.66
165.92
164.96
162.30
157.72
151.58
144.85
138.71
134.07
130.96
128.45
124.99
118.98
109.43
96.43
81.08
65.07
49.96
36.61
24.85
13.71
1.91
-11.52
-26.85
-43.49
-60.33
-76.22
-90.48
-103.23
-115.38
-128.41
-143.99
-163.42
-186.94
-213.21
-238.91
-259.10
-268.34
-262.26
-239.18
-200.90
-152.27
-99.63
-48.93
-4.05
33.60
64.43
89.54
109.66
124.87
134.98
140.19
141.44
140.29
138.38
136.84
136.05
135.72
135.26
134.20
132.26
129.35
125.32
119.86
112.52
102.95
91.15
77.57
63.04
48.40
34.15
20.26
6.22
-8.68
-24.83
-42.09
-59.76
-76.96
-93.00
-107.85
-122.20
-137.34
-154.83
-175.97
-201.05
-228.76
-255.74
-277.01
-287.00
-281.25
-258.11
-219.38
-169.92
-116.03
-63.57
-16.40
24.02
57.97
86.47
110.28
129.62
144.33
154.41
160.39
163.27
164.25
164.24
163.53
161.96
159.17
155.16
150.35
145.55
141.46
138.19
135.14
131.14
124.98
115.97
104.23
90.65
76.48
62.77
49.85
37.28
23.97
8.86
-8.54
-27.72
-47.35
-65.80
-81.90
-95.55
-107.80
-120.62
-136.14
-156.11
-181.08
-209.95
-239.68
-265.43
-281.51
-282.82
-266.47
-232.95
-186.18
-132.28
-77.68
-27.31
16.29
52.79
83.03
108.04
128.42
144.27
155.67
163.00
167.11
169.05
169.71
169.42
168.00
164.98
160.15
153.87
147.08
140.87
135.88
131.93
127.94
122.35
113.89
102.03
87.37
71.30
55.44
41.11
28.77
17.91
7.25
-4.64
-18.74
-35.05
-52.56
-69.68
-84.99
-97.94
-109.17
-120.20
-132.98
-149.24
-169.88
-194.51
-220.99
-245.37
-262.35
-266.53
-254.05
-224.16
-179.81
-126.84
-72.16
-21.61
21.42
56.16
83.56
104.98
121.25
132.64
139.23
141.53
140.75
138.63
136.73
135.92
136.17
136.64
136.30
134.42
130.80
125.71
119.52
112.39
104.15
94.44
83.10
70.29
56.53
42.33
27.91
13.05
-2.77
-19.89
-38.18
-56.90
-74.98
-91.45
-105.99
-119.20
-132.62
-148.25
-167.99
-192.75
-221.61
-251.36
-276.75
-291.60
-290.57
-270.98
-233.92
-184.11
-128.40
-73.61
-24.70
16.17
49.23
75.86
97.41
114.52
127.23
135.68
140.50
142.92
144.19
145.07
145.48
144.60
141.63
136.24
128.96
120.84
112.96
105.98
99.85
94.02
87.85
81.08
73.89
66.95
60.95
56.22
52.42
48.59
43.41
35.76
25.14
11.80
-3.42
-19.43
-35.40
-51.01
-66.59
-83.10
-101.99
-124.76
-152.38
-184.29
-217.83
-248.21
-269.43
-276.05
-265.07
-237.02
-195.86
-147.62
-98.49
-53.10
-13.75
19.39
47.33
71.20
91.65
108.73
122.29
132.43
139.64
144.70
148.38
151.03
152.55
152.61
151.00
147.91
143.93
139.89
136.35
133.31
130.06
125.52
118.62
108.81
96.38
82.49
68.72
56.42
46.05
36.99
27.72
16.56
2.51
-14.32
-32.64
-50.63
-66.69
-80.06
-91.12
-101.28
-112.56
-127.02
-146.09
-169.87
-196.54
-222.25
-241.65
-249.15
-240.80
-215.55
-175.95
-127.39
-76.36
-28.49
12.73
46.28
72.85
93.68
109.71
121.36
128.83
132.64
133.85
133.82
133.71
134.04
134.53
134.54
133.36
130.68
126.64
121.59
115.89
109.65
102.72
94.72
85.36
74.53
62.33
49.13
35.33
21.26
7.04
-7.44
-22.42
-38.05
-54.24
-70.62
-86.66
-102.08
-117.11
-132.74
-150.37
-171.29
-195.55
-221.24
-244.58
-260.78
-265.73
-257.24
-235.53
-202.79
-162.16
-116.80
-69.53
-22.89
20.67
58.97
90.50
114.91
132.93
145.91
155.13
161.35
164.88
165.89
164.84
162.45
159.42
156.19
152.95
149.62
146.11
142.33
138.13
133.17
126.84
118.62
108.23
95.95
82.60
69.24
56.74
45.46
34.98
24.26
12.08
-2.41
-19.34
-37.94
-56.81
-74.51
-90.12
-103.73
-116.43
-130.05
-146.55
-167.34
-192.58
-220.60
-247.74
-268.74
-277.92
-270.95
-246.34
-206.28
-156.02
-102.18
-50.70
-5.27
32.99
64.67
90.94
112.44
129.17
140.93
147.93
151.13
152.04
152.14
152.31
152.59
152.42
151.09
148.21
144.07
139.37
134.89
130.94
127.12
122.41
115.63
106.00
93.60
79.37
64.82
51.43
40.03
30.46
21.66
12.10
0.39
-14.05
-30.80
-48.53
-65.57
-80.60
-93.18
-103.87
-114.07
-125.45
-139.62
-157.65
-179.70
-204.57
-229.33
-249.43
-259.45
-254.67
-232.79
-195.03
-146.04
-92.45
-40.79
4.33
41.03
69.72
91.95
109.16
122.11
130.94
135.84
137.41
136.81
135.37
134.07
133.10
131.96
129.88
126.48
122.00
117.23
112.90
109.15
105.23
99.79
91.53
79.89
65.40
49.51
33.99
20.19
8.53
-1.71
-12.08
-24.18
-39.08
-56.69
-75.85
-94.76
-111.83
-126.36
-138.95
-151.25
-165.45
-183.52
-206.38
-233.22
-261.13
-285.27
-299.74
-299.29
-281.00
-245.49
-196.90
-141.58
-86.06
-35.29
8.30
44.39
73.87
97.77
116.72
131.08
141.26
147.98
152.17
154.77
156.39
157.14
156.72
154.86
151.47
147.02
142.29
138.15
134.98
132.39
129.30
124.32
116.50
105.68
92.73
79.05
66.06
54.52
44.21
34.08
22.70
8.94
-7.61
-26.37
-46.08
-65.22
-82.66
-98.16
-112.49
-127.29
-144.56
-165.88
-191.57
-220.05
-247.57
-268.67
-277.56
-269.79
-243.97
-202.40
-150.58
-95.48
-43.40
1.58
38.07
66.80
89.46
107.51
121.80
132.58
139.95
144.21
145.99
145.95
144.63
142.24
138.79
134.34
129.26
124.19
119.72
116.07
112.72
108.68
102.85
94.62
84.14
72.27
60.01
47.96
36.17
24.15
11.34
-2.49
-17.19
-32.22
-46.97
-61.02
-74.26
-86.98
-99.96
-114.36
-131.54
-152.40
-176.59
-201.82
-223.83
-237.10
-236.61
-219.59
-186.76
-142.36
-92.83
-44.69
-2.65
31.45
58.19
79.30
96.28
109.59
118.86
123.68
124.36
122.10
118.61
115.35
112.97
111.33
109.77
107.62
104.45
100.16
94.83
88.56
81.42
73.45
64.57
54.58
43.11
29.94
15.06
-1.07
-17.71
-34.01
-49.48
-64.10
-78.29
-92.79
-108.38
-125.85
-145.87
-168.85
-194.54
-221.56
-247.07
-266.88
-276.38
-271.90
-252.17
-218.88
-176.20
-129.42
-83.16
-40.13
-1.09
34.32
66.48
94.97
118.70
136.57
148.24
154.51
156.94
157.28
156.73
155.83
154.56
152.71
150.19
147.01
143.21
138.69
133.16
126.24
117.74
107.74
96.49
84.40
71.68
58.31
44.00
28.49
11.75
-5.87
-23.59
-40.59
-56.34
-70.93
-85.10
-100.12
-117.34
-137.84
-161.94
-188.62
-215.32
-237.88
-251.32
-251.17
-235.02
-203.57
-160.63
-111.87
-62.95
-17.90
21.59
55.58
84.85
109.80
130.17
145.48
155.63
161.28
163.64
164.01
163.16
161.28
158.10
153.54
147.87
141.81
136.21
131.53
127.58
123.51
118.16
110.67
100.86
89.29
76.89
64.54
52.48
40.34
27.37
12.95
-2.95
-19.76
-36.47
-52.09
-66.07
-78.60
-90.62
-103.60
-119.30
-139.13
-163.48
-190.96
-218.07
-239.61
-249.93
-244.73
-222.63
-185.83
-139.51
-90.06
-43.18
-2.32
31.53
59.10
81.62
99.80
113.57
122.54
126.68
126.79
124.47
121.58
119.51
118.76
118.76
118.38
116.49
112.51
106.63
99.65
92.52
85.86
79.63
73.20
65.63
56.02
43.97
29.59
13.53
-3.21
-19.71
-35.23
-49.51
-62.79
-75.84
-89.88
-106.19
-125.88
-149.26
-175.36
-201.55
-223.79
-237.35
-238.23
-224.42
-196.80
-158.86
-115.63
-72.01
-31.37
4.92
37.06
65.80
91.44
113.53
131.14
143.55
150.87
154.08
154.63
153.78
152.21
149.95
146.76
142.65
138.06
133.71
130.07
126.95
123.43
118.22
110.29
99.46
86.45
72.62
59.28
47.09
35.77
24.30
11.39
-3.85
-21.45
-40.46
-59.39
-76.71
-91.61
-104.43
-116.59
-130.24
-147.51
-169.72
-196.60
-225.75
-252.74
-271.89
-277.77
-266.92
-239.20
-197.94
-148.91
-98.39
-51.26
-9.96
25.34
55.69
82.14
105.09
124.23
139.19
149.90
156.91
161.10
163.40
164.47
164.54
163.51
161.19
157.54
152.89
147.84
143.16
139.38
136.54
134.08
131.02
126.25
119.04
109.20
97.22
84.14
71.21
59.45
49.34
40.59
32.18
22.78
11.25
-2.92
-19.49
-37.82
-57.14
-76.94
-97.06
-117.58
-138.72
-160.92
-184.72
-210.50
-237.86
-264.94
-288.10
-302.50
-303.51
-288.35
-257.38
-214.11
-164.08
-113.04
-65.32
-23.07
13.43
44.81
71.66
93.93
111.23
123.31
130.67
134.59
136.76
138.61
140.72
142.72
143.74
142.98
140.25
135.99
131.08
126.27
121.80
117.31
112.02
105.11
96.16
85.32
73.36
61.35
50.31
40.66
32.04
23.40
13.47
1.33
-13.12
-29.04
-45.09
-59.96
-73.01
-84.51
-95.59
-108.03
-123.57
-143.49
-167.82
-194.94
-221.29
-241.94
-251.74
-246.82
-225.98
-191.28
-147.43
-100.28
-55.09
-15.11
18.80
47.45
72.32
94.37
113.61
129.33
140.73
147.61
150.59
150.83
149.63
147.89
145.93
143.66
140.92
137.76
134.45
131.38
128.71
126.17
123.07
118.41
111.32
101.43
89.08
75.26
61.30
48.40
37.19
27.49
18.47
8.97
-2.07
-15.34
-30.85
-47.99
-65.63
-82.53
-97.68
-110.76
-122.28
-133.53
-146.32
-162.46
-183.07
-207.94
-234.92
-259.76
-276.88
-280.79
-268.02
-238.51
-195.81
-145.98
-95.44
-48.98
-8.76
25.34
54.58
80.07
102.15
120.48
134.64
144.61
150.94
154.47
156.04
156.16
155.02
152.66
149.16
144.81
140.08
135.46
131.33
127.69
124.19
120.18
114.96
108.03
99.24
88.85
77.37
65.48
53.89
43.08
33.29
24.27
15.38
5.69
-5.66
-19.11
-34.42
-50.82
-67.23
-82.65
-96.57
-109.02
-120.62
-132.41
-145.73
-161.97
-182.06
-205.81
-231.17
-254.05
-268.99
-270.75
-256.10
-225.20
-181.64
-131.32
-80.49
-33.94
5.96
38.98
66.05
88.19
105.91
119.26
128.30
133.44
135.56
135.71
134.77
133.17
130.95
128.10
124.75
121.29
118.15
115.49
113.02
109.97
105.43
98.74
89.79
79.02
67.23
55.17
43.20
31.07
18.17
3.99
-11.56
-27.94
-44.07
-58.90
-71.84
-83.10
-93.70
-105.31
-119.73
-138.39
-161.48
-187.37
-212.25
-230.73
-237.28
-228.13
-202.78
-164.42
-118.88
-72.58
-30.50
4.82
33.25
55.94
74.21
88.69
99.42
106.20
109.18
109.02
106.87
103.95
101.14
98.60
95.87
92.20
87.07
80.57
73.55
67.08
61.99
58.28
55.02
50.68
43.78
33.40
19.51
3.05
-14.47
-31.47
-46.68
-59.61
-70.73
-81.31
-93.05
-107.61
-126.10
-148.58
-173.64
-198.23
-217.92
-227.87
-224.13
-205.04
-172.05
-129.34
-82.50
-36.75
4.43
39.74
69.45
94.41
115.20
131.74
143.69
150.88
153.72
153.20
150.55
146.84
142.64
137.84
131.97
124.58
115.71
106.02
96.54
88.15
81.00
74.20
66.16
55.23
40.57
22.54
2.62
-17.16
-35.10
-50.42
-63.49
-75.61
-88.55
-104.01
-123.20
-146.35
-172.43
-198.90
-221.83
-236.51
-238.61
-225.54
-197.43
-157.33
-110.29
-61.81
-16.21
24.20
59.08
89.12
115.06
136.99
154.48
167.03
174.67
178.09
178.50
177.15
174.94
172.31
169.39
166.06
162.26
158.06
153.68
149.34
145.12
140.89
136.23
130.69
123.96
116.10
107.39
98.09
88.19
77.41
65.40
52.11
38.09
24.26
11.49
0.12
-10.23
-20.58
-32.07
-45.55
-61.29
-78.82
-97.17
-115.13
-131.70
-146.46
-159.88
-173.36
-188.88
-208.25
-231.97
-258.58
-284.18
-303.12
-309.49
-298.95
-270.23
-225.77
-170.99
-112.65
-56.98
-8.08
32.41
64.90
90.82
111.64
128.41
141.69
151.79
159.02
163.77
166.44
167.29
166.48
164.14
160.48
155.97
151.35
147.43
144.83
143.72
143.62
143.47
142.03
138.31
131.95
123.35
113.38
102.99
92.85
83.09
73.34
63.15
52.18
40.51
28.55
16.90
5.91
-4.50
-15.05
-26.78
-40.51
-56.32
-73.34
-89.93
-104.39
-115.80
-124.51
-132.16
-141.06
-153.36
-170.24
-191.26
-214.11
-234.91
-248.89
-251.54
-240.00
-214.03
-176.27
-131.61
-85.71
-43.32
-7.33
21.57
44.27
62.31
77.10
89.53
100.02
108.69
115.65
120.90
124.39
125.98
125.50
122.98
118.84
113.93
109.32
105.92
104.05
103.28
102.65
101.07
97.76
92.58
85.92
78.46
70.86
63.52
56.47
49.53
42.34
34.65
26.36
17.63
8.80
0.19
-8.11
-16.33
-24.93
-34.29
-44.47
-55.12
-65.58
-75.31
-84.06
-92.10
-100.12
-109.12
-120.13
-133.96
-150.73
-169.35
-187.26
-200.60
-205.14
-197.68
-177.30
-145.89
-107.75
-68.14
-31.72
-1.33
22.32
40.15
53.73
64.41
72.97
79.64
84.45
87.57
89.38
90.34
90.76
90.66
89.82
87.99
85.13
81.54
77.80
74.47
71.87
69.88
67.96
65.37
61.42
55.70
48.32
39.85
31.21
23.43
17.19
12.56
8.84
4.78
-0.93
-9.09
-19.69
-31.88
-44.35
-55.87
-65.76
-74.04
-81.35
-88.75
-97.39
-108.23
-121.77
-137.56
-154.01
-168.29
-176.87
-176.48
-165.24
-143.46
-113.70
-79.98
-46.53
-16.60
8.15
27.57
42.48
53.91
62.64
69.17
73.69
76.46
77.79
78.07
77.71
76.99
76.13
75.19
74.23
73.22
72.10
70.82
69.30
67.47
65.28
62.67
59.58
55.94
51.68
46.68
40.82
34.06
26.58
18.80
11.28
4.47
-1.49
-6.96
-12.63
-19.27
-27.34
-36.73
-46.94
-57.18
-66.76
-75.32
-82.98
-90.21
-97.81
-106.77
-117.93
-131.65
-147.38
-163.32
-176.54
-183.58
-181.43
-168.56
-145.58
-115.18
-81.29
-48.00
-18.40
6.00
25.17
39.99
51.53
60.54
67.38
72.13
74.97
76.28
76.62
76.52
76.31
76.04
75.62
74.94
73.99
72.83
71.50
69.96
68.07
65.68
62.71
59.12
54.99
50.34
45.18
39.46
33.13
26.18
18.78
11.21
3.88
-2.87
-8.93
-14.53
-20.28
-26.88
-34.88
-44.39
-55.05
-66.15
-76.91
-86.85
-95.90
-104.49
-113.51
-124.06
-137.14
-153.08
-170.98
-188.35
-201.42
-206.07
-199.24
-180.14
-150.75
-115.16
-78.19
-43.95
-14.79
8.85
27.75
43.02
55.39
65.13
72.26
77.00
79.90
81.82
83.51
85.44
87.61
89.71
91.36
92.32
92.62
92.42
91.91
91.11
89.78
87.58
84.26
79.85
74.62
68.94
63.11
57.13
50.75
43.62
35.65
27.00
18.16
9.59
1.45
-6.53
-14.93
-24.28
-34.79
-46.21
-57.96
-69.39
-80.17
-90.38
-100.61
-111.75
-124.84
-140.69
-159.43
-180.06
-200.10
-215.78
-222.90
-218.09
-200.01
-169.94
-131.59
-89.83
-49.30
-13.20
17.07
41.67
61.40
77.10
89.19
97.88
103.38
106.31
107.65
108.53
109.79
111.71
113.95
115.82
116.64
116.12
114.44
112.15
109.85
107.83
105.97
103.77
100.51
95.55
88.65
80.01
70.31
60.45
51.15
42.64
34.51
25.88
15.79
3.68
-10.28
-25.28
-40.18
-54.01
-66.35
-77.47
-88.28
-100.01
-114.01
-131.27
-152.13
-175.70
-199.60
-220.03
-232.47
-232.85
-218.88
-190.92
-152.11
-107.41
-62.20
-20.79
14.42
43.00
65.80
84.07
98.77
110.31
118.74
124.18
127.13
128.51
129.39
130.61
132.42
134.54
136.33
137.13
136.63
134.92
132.38
129.43
126.22
122.60
118.21
112.63
105.59
97.12
87.50
77.18
66.62
56.19
45.97
35.72
25.00
13.30
0.24
-14.23
-29.67
-45.23
-59.95
-73.05
-84.30
-94.15
-103.75
-114.53
-128.12
-145.73
-167.74
-193.14
-219.17
-241.46
-254.77
-254.40
-237.69
-205.10
-160.30
-109.20
-58.20
-12.45
25.29
54.73
77.13
94.37
107.91
118.48
126.31
131.56
134.65
136.31
137.24
137.84
138.06
137.63
136.34
134.37
132.18
130.30
128.95
127.87
126.43
123.90
119.67
113.47
105.36
95.63
84.79
73.47
62.28
51.70
41.92
32.79
23.80
14.27
3.57
-8.68
-22.50
-37.46
-52.80
-67.57
-80.98
-92.65
-102.93
-112.82
-123.89
-137.85
-156.06
-178.81
-204.68
-230.30
-250.61
-260.00
-253.96
-230.83
-192.49
-144.06
-92.25
-43.37
-1.73
31.03
55.42
73.08
85.76
94.80
101.06
105.18
107.79
109.57
111.07
112.64
114.16
115.21
115.23
113.92
111.47
108.59
106.22
105.07
105.00
105.06
103.73
99.68
92.28
82.06
70.37
58.87
48.74
40.35
33.06
25.72
17.11
6.50
-6.09
-19.93
-33.90
-47.02
-58.83
-69.66
-80.53
-92.80
-107.83
-126.54
-148.91
-173.59
-197.58
-216.56
-225.70
-221.22
-201.72
-168.97
-127.44
-82.87
-40.34
-3.01
28.23
53.94
75.07
92.15
105.14
113.94
118.89
121.06
121.93
122.89
124.66
127.14
129.60
131.14
131.16
129.64
126.99
123.77
120.44
117.02
113.12
108.11
101.41
92.72
82.22
70.53
58.45
46.78
36.05
26.25
16.93
7.32
-3.42
-15.84
-30.00
-45.39
-61.14
-76.33
-90.30
-102.96
-114.88
-127.20
-141.42
-159.05
-180.94
-206.67
-233.92
-258.54
-275.20
-278.82
-266.22
-237.32
-195.36
-145.92
-95.20
-48.28
-8.03
24.97
51.67
73.49
91.58
106.38
117.98
126.44
132.14
135.77
138.15
139.90
141.30
142.40
143.12
143.45
143.44
143.08
142.22
140.51
137.56
133.12
127.20
120.08
112.12
103.68
94.91
85.82
76.30
66.22
55.55
44.39
32.94
21.35
9.58
-2.60
-15.54
-29.44
-44.08
-58.95
-73.36
-86.81
-99.25
-111.12
-123.29
-136.87
-153.02
-172.68
-196.00
-221.60
-246.10
-264.43
-270.98
-261.59
-235.23
-194.63
-145.56
-94.81
-48.10
-8.65
23.00
47.99
67.91
83.89
96.32
105.34
111.29
114.96
117.43
119.63
122.01
124.33
125.95
126.32
125.38
123.63
121.91
120.95
120.85
120.91
119.84
116.28
109.39
99.24
86.84
73.81
61.71
51.41
42.75
34.65
25.59
14.32
0.47
-15.37
-31.82
-47.36
-61.04
-72.83
-83.73
-95.45
-109.87
-128.47
-151.69
-178.38
-205.52
-228.42
-241.67
-240.68
-223.28
-190.68
-147.32
-99.51
-53.44
-13.43
18.87
44.15
64.30
81.16
95.71
108.12
118.08
125.47
130.69
134.47
137.53
140.20
142.19
142.90
141.81
138.98
135.02
130.94
127.58
125.21
123.33
120.85
116.54
109.53
99.62
87.41
74.11
61.06
49.27
39.06
29.89
20.68
10.20
-2.38
-17.19
-33.63
-50.69
-67.29
-82.70
-96.78
-110.00
-123.34
-138.10
-155.55
-176.57
-201.06
-227.42
-252.20
-270.55
-277.28
-268.50
-243.14
-203.60
-155.11
-104.09
-56.11
-14.47
20.04
48.37
71.97
91.90
108.51
121.77
131.76
138.91
143.93
147.47
149.95
151.49
152.04
151.55
150.18
148.20
145.89
143.40
140.71
137.52
133.43
128.09
121.47
113.80
105.48
96.87
88.04
78.81
68.96
58.44
47.52
36.49
25.50
14.16
1.75
-12.39
-28.36
-45.53
-62.67
-78.53
-92.42
-104.51
-115.87
-128.01
-142.58
-160.83
-183.12
-208.41
-233.88
-255.11
-266.86
-264.61
-246.11
-212.40
-167.66
-117.96
-69.34
-26.26
9.22
37.21
58.95
75.96
89.28
99.51
107.06
112.45
116.37
119.57
122.51
125.17
127.16
127.90
127.09
124.91
122.03
119.27
117.09
115.23
112.73
108.32
101.06
90.89
78.77
66.25
54.83
45.21
37.01
28.91
19.27
6.89
-8.50
-26.06
-44.27
-61.45
-76.45
-89.12
-100.42
-112.20
-126.64
-145.52
-169.31
-196.49
-223.35
-244.56
-254.53
-249.18
-227.32
-191.26
-146.07
-97.98
-52.46
-12.89
19.82
46.57
68.89
87.99
104.36
117.85
128.34
135.93
141.13
144.58
146.75
147.77
147.55
145.99
143.25
139.80
136.21
132.90
129.99
127.21
123.97
119.63
113.61
105.55
95.47
83.76
71.16
58.55
46.73
36.16
26.85
18.35
9.76
0.10
-11.47
-25.25
-40.87
-57.30
-73.29
-87.82
-100.59
-112.11
-123.57
-136.54
-152.49
-172.38
-196.19
-222.38
-247.57
-266.88
-274.94
-267.59
-243.46
-204.74
-156.65
-105.75
-57.88
-16.66
16.99
44.06
66.29
85.09
101.11
114.40
124.89
132.73
138.40
142.51
145.48
147.44
148.30
147.99
146.67
144.74
142.70
140.84
139.02
136.68
133.04
127.56
120.14
111.22
101.63
92.18
83.30
74.88
66.39
57.21
47.00
35.97
24.80
14.21
4.56
-4.46
-13.74
-24.37
-37.03
-51.64
-67.35
-82.91
-97.19
-109.68
-120.70
-131.30
-143.11
-157.88
-176.92
-200.33
-226.26
-250.61
-267.62
-271.44
-258.15
-227.39
-182.75
-130.61
-78.12
-30.95
8.02
38.53
62.04
80.34
94.74
105.84
113.90
119.29
122.72
125.02
126.97
128.88
130.59
131.60
131.44
129.90
127.20
123.82
120.34
117.07
113.97
110.71
106.75
101.51
94.62
85.95
75.72
64.52
53.13
42.34
32.59
23.73
15.12
5.70
-5.46
-18.85
-34.27
-50.91
-67.67
-83.48
-97.82
-110.79
-123.16
-136.27
-151.64
-170.66
-193.95
-220.72
-248.19
-271.65
-285.35
-284.14
-265.30
-229.80
-182.17
-129.13
-77.37
-31.71
5.87
35.78
59.73
79.37
95.71
109.08
119.56
127.36
133.00
137.09
140.14
142.41
143.90
144.56
144.38
143.52
142.23
140.69
138.91
136.70
133.73
129.69
124.42
117.98
110.59
102.42
93.57
83.98
73.57
62.40
50.77
39.13
27.91
17.23
6.74
-4.20
-16.30
-29.94
-44.91
-60.56
-75.98
-90.48
-103.83
-116.40
-129.05
-143.05
-159.84
-180.52
-205.20
-232.12
-257.29
-274.99
-279.31
-266.23
-235.38
-190.50
-138.23
-85.86
-38.95
-0.07
30.98
55.91
76.43
93.36
106.71
116.34
122.46
125.93
127.90
129.32
130.65
131.81
132.41
132.02
130.54
128.15
125.34
122.64
120.39
118.50
116.42
113.35
108.58
101.77
93.10
83.15
72.60
62.06
51.90
42.25
33.00
23.80
14.07
3.14
-9.40
-23.54
-38.62
-53.62
-67.52
-79.82
-90.76
-101.28
-112.78
-126.65
-144.03
-165.25
-189.37
-213.69
-233.91
-244.85
-241.88
-222.70
-188.29
-142.97
-93.01
-44.72
-2.64
31.30
57.41
77.22
92.26
103.42
111.02
115.30
116.84
116.72
116.18
116.13
116.79
117.64
117.90
116.98
114.90
112.23
109.76
107.89
106.18
103.55
98.62
90.48
79.18
65.80
52.04
39.46
28.84
19.82
11.12
1.06
-11.62
-27.16
-44.76
-62.77
-79.48
-93.79
-105.70
-116.33
-127.55
-141.47
-159.73
-182.79
-209.36
-236.10
-257.97
-269.21
-265.12
-243.70
-206.54
-158.61
-106.69
-57.27
-14.73
19.36
45.78
66.49
83.32
97.30
108.68
117.41
123.58
127.63
130.27
132.10
133.43
134.17
133.98
132.62
130.14
126.93
123.61
120.76
118.74
117.38
116.06
113.72
109.27
101.94
91.57
78.82
64.90
51.21
38.78
27.92
18.21
8.62
-1.92
-14.27
-28.63
-44.59
-61.16
-77.24
-91.97
-105.12
-117.17
-129.29
-142.96
-159.60
-180.06
-204.06
-229.63
-252.97
-268.90
-272.22
-259.36
-229.93
-187.14
-136.94
-86.00
-39.75
-0.99
30.01
54.67
74.60
90.92
104.02
113.97
120.99
125.70
128.95
131.50
133.69
135.34
135.90
134.82
131.90
127.56
122.67
118.25
114.87
112.30
109.43
104.85
97.40
86.84
74.00
60.48
47.92
37.37
28.86
21.42
13.57
3.95
-8.04
-21.98
-36.68
-50.65
-62.76
-72.77
-81.42
-90.16
-100.65
-114.33
-132.07
-153.74
-177.92
-201.69
-220.66
-229.93
-225.44
-205.54
-171.78
-128.73
-82.40
-38.39
-0.32
30.67
55.20
74.60
89.79
101.01
108.21
111.70
112.48
112.11
112.10
113.24
115.33
117.33
118.00
116.55
113.01
108.17
103.12
98.63
94.72
90.71
85.56
78.45
69.28
58.73
48.11
38.66
31.06
25.00
19.19
11.91
1.67
-12.14
-29.02
-47.51
-65.82
-82.45
-96.75
-109.18
-121.08
-134.27
-150.47
-170.66
-194.44
-219.61
-242.15
-256.93
-259.06
-245.53
-216.46
-175.37
-128.03
-80.64
-37.88
-1.81
27.94
53.09
75.37
95.56
113.42
128.22
139.40
146.92
151.35
153.49
154.07
153.62
152.45
150.83
149.07
147.48
146.26
145.38
144.44
142.76
139.63
134.54
127.43
118.73
109.18
99.51
90.17
81.13
71.98
62.20
51.53
40.09
28.43
17.13
6.42
-4.08
-15.21
-27.88
-42.47
-58.58
-75.15
-90.95
-105.19
-117.87
-129.80
-142.29
-156.79
-174.50
-195.96
-220.42
-245.39
-266.59
-278.67
-276.64
-257.78
-222.81
-176.01
-123.91
-73.16
-28.58
7.84
36.64
59.73
78.99
95.47
109.34
120.36
128.49
134.15
138.09
140.99
143.15
144.46
144.67
143.65
141.60
138.99
136.24
133.54
130.66
127.25
122.89
117.37
110.70
103.06
94.64
85.63
76.15
66.35
56.40
46.49
36.80
27.39
18.09
8.59
-1.55
-12.69
-24.92
-37.93
-51.09
-63.68
-75.20
-85.62
-95.49
-105.84
-117.94
-133.00
-151.76
-173.86
-197.33
-218.49
-232.39
-234.16
-220.74
-192.10
-151.69
-105.31
-59.27
-18.31
15.41
42.14
63.49
81.06
95.64
107.24
115.59
120.80
123.48
124.65
125.31
126.05
126.95
127.74
128.04
127.58
126.32
124.42
122.04
119.25
115.85
111.43
105.58
98.08
89.05
78.97
68.41
57.89
47.68
37.89
28.49
19.39
10.35
0.87
-9.68
-21.90
-36.06
-51.83
-68.34
-84.50
-99.36
-112.55
-124.40
-135.86
-148.40
-163.67
-183.06
-207.08
-234.60
-262.32
-284.98
-296.49
-291.77
-268.67
-229.01
-178.14
-123.38
-71.47
-26.80
9.34
38.08
61.54
81.50
98.74
113.23
124.72
133.31
139.49
143.86
146.84
148.45
148.57
147.21
144.79
141.95
139.37
137.36
135.68
133.73
130.80
126.39
120.34
112.76
103.87
93.90
83.10
71.83
60.59
49.90
40.01
30.78
21.53
11.30
-0.83
-15.29
-31.80
-49.40
-66.82
-82.91
-97.13
-109.73
-121.70
-134.51
-149.77
-168.69
-191.54
-217.04
-242.05
-261.81
-270.98
-265.24
-242.85
-205.56
-158.19
-107.18
-58.51
-16.16
18.46
45.95
67.80
85.28
99.06
109.45
116.75
121.65
125.12
128.05
130.76
132.86
133.54
132.09
128.47
123.46
118.49
114.89
113.22
112.96
112.58
110.27
104.62
95.22
82.83
69.03
55.67
44.08
34.62
26.55
18.38
8.58
-3.65
-18.09
-33.55
-48.59
-62.23
-74.30
-85.56
-97.26
-110.79
-127.20
-147.00
-169.59
-192.85
-213.06
-225.35
-225.23
-210.13
-180.56
-140.21
-94.73
-49.85
-9.75
23.65
50.41
71.62
88.39
101.35
110.60
116.20
118.60
118.76
117.98
117.40
117.55
118.17
118.46
117.60
115.29
111.98
108.57
105.78
103.66
101.29
97.20
90.13
79.61
66.37
52.02
38.45
26.92
17.54
9.08
-0.38
-12.56
-28.11
-46.25
-65.09
-82.54
-97.28
-109.22
-119.54
-130.05
-142.67
-158.88
-179.51
-204.28
-231.44
-257.38
-276.92
-284.52
-275.99
-250.29
-210.14
-161.26
-110.42
-63.30
-23.03
10.03
37.25
60.46
80.90
98.88
114.09
126.15
135.08
141.35
145.74
148.94
151.29
152.68
152.80
151.42
148.69
145.23
141.81
138.98
136.72
134.30
130.65
124.74
116.12
105.04
92.37
79.23
66.61
54.97
44.27
33.97
23.35
11.70
-1.50
-16.42
-32.82
-50.01
-67.05
-83.02
-97.36
-110.24
-122.62
-136.07
-152.31
-172.51
-196.61
-222.77
-247.38
-265.45
-271.89
-262.96
-237.62
-198.12
-149.50
-98.07
-49.54
-7.58
26.67
53.85
75.35
92.36
105.57
115.39
122.41
127.49
131.56
135.18
138.22
140.08
140.01
137.69
133.47
128.33
123.46
119.71
117.24
115.33
112.72
108.13
100.81
90.96
79.65
68.17
57.49
47.80
38.38
28.12
16.14
2.27
-12.82
-27.91
-41.87
-54.11
-64.86
-75.20
-86.70
-101.11
-119.77
-143.05
-169.73
-196.71
-219.25
-231.99
-230.54
-213.05
-181.09
-139.29
-93.82
-50.42
-12.69
18.36
43.71
65.02
83.51
99.40
112.25
121.64
127.74
131.37
133.71
135.62
137.31
138.32
137.94
135.67
131.60
126.40
121.03
116.19
112.00
107.72
102.16
94.18
83.39
70.37
56.62
43.94
33.59
25.74
19.32
12.45
3.28
-9.25
-25.03
-42.78
-60.78
-77.48
-92.06
-104.79
-116.82
-129.86
-145.69
-165.62
-189.88
-217.20
-244.38
-266.61
-278.40
-275.16
-254.81
-218.82
-171.95
-120.83
-71.78
-29.12
5.69
33.50
56.30
75.97
93.55
109.19
122.56
133.32
141.45
147.29
151.35
154.13
155.90
156.61
156.05
154.02
150.64
146.32
141.65
137.07
132.54
127.52
121.22
112.93
102.46
90.12
76.75
63.30
50.59
39.02
28.55
18.64
8.47
-2.84
-15.88
-30.64
-46.50
-62.44
-77.43
-90.96
-103.23
-115.11
-127.87
-142.88
-161.31
-183.70
-209.48
-236.47
-260.70
-277.03
-280.36
-267.40
-238.02
-195.53
-145.71
-94.87
-48.01
-7.62
26.10
54.30
78.20
98.27
114.31
125.99
133.49
137.73
140.18
142.17
144.35
146.49
147.76
147.29
144.79
140.73
136.14
132.01
128.65
125.52
121.36
114.91
105.60
93.83
80.99
68.65
57.88
48.57
39.48
28.79
15.02
-2.20
-21.92
-42.19
-60.98
-77.02
-90.35
-102.31
-115.08
-130.90
-151.35
-176.67
-205.31
-233.77
-257.06
-269.76
-267.50
-248.53
-214.48
-169.94
-121.04
-73.46
-30.94
5.34
36.06
62.58
85.92
106.20
122.96
135.75
144.62
150.26
153.69
155.80
157.07
157.56
157.01
155.31
152.54
149.09
145.42
141.87
138.41
134.54
129.42
122.16
112.15
99.45
84.94
70.05
56.21
44.27
34.10
24.64
14.33
1.83
-13.45
-31.12
-50.01
-68.62
-85.72
-100.79
-114.17
-126.98
-140.89
-157.63
-178.49
-203.67
-231.68
-259.13
-281.00
-291.76
-286.95
-264.75
-226.84
-178.09
-124.97
-73.54
-27.82
10.90
43.34
71.08
95.30
116.34
133.92
147.70
157.77
164.75
169.40
172.30
173.67
173.54
172.03
169.52
166.61
163.92
161.74
159.85
157.60
154.14
148.81
141.44
132.37
122.26
111.80
101.39
90.99
80.20
68.63
56.11
42.89
29.55
16.72
4.68
-6.75
-18.26
-30.71
-44.78
-60.61
-77.73
-95.16
-111.82
-126.85
-140.13
-152.27
-164.70
-179.31
-197.88
-221.29
-248.58
-276.51
-299.72
-311.95
-307.86
-285.01
-244.90
-192.62
-135.27
-79.71
-30.74
9.71
42.12
68.15
89.49
107.13
121.38
132.27
140.03
145.22
148.67
151.07
152.70
153.42
152.80
150.58
146.92
142.52
138.37
135.23
133.20
131.56
128.97
124.03
115.95
104.82
91.65
77.89
64.84
53.15
42.59
32.27
20.99
7.77
-7.76
-25.24
-43.65
-61.80
-78.63
-93.74
-107.52
-121.08
-136.01
-154.01
-176.40
-203.40
-233.52
-263.11
-286.78
-298.56
-293.74
-270.64
-231.29
-181.00
-126.54
-74.04
-27.48
11.81
44.39
71.62
94.64
113.92
129.44
141.14
149.25
154.39
157.39
159.08
160.00
160.30
159.88
158.51
156.09
152.69
148.56
143.94
138.93
133.44
127.22
120.00
111.56
101.85
90.96
79.07
66.52
53.75
41.16
29.04
17.33
5.63
-6.77
-20.52
-35.87
-52.58
-69.88
-86.84
-102.73
-117.30
-130.92
-144.47
-159.18
-176.45
-197.43
-222.47
-250.38
-277.94
-300.11
-311.04
-305.88
-282.51
-242.55
-190.99
-134.61
-79.86
-31.12
9.94
43.83
72.05
95.98
116.31
133.09
146.22
155.86
162.46
166.69
169.10
170.06
169.74
168.31
166.02
163.25
160.38
157.60
154.89
151.95
148.34
143.62
137.51
129.83
120.61
110.00
98.18
85.36
71.85
57.99
44.21
30.86
18.11
5.80
-6.61
-19.83
-34.40
-50.45
-67.54
-84.76
-101.14
-116.03
-129.45
-142.09
-155.23
-170.47
-189.17
-212.05
-238.35
-265.43
-288.74
-302.65
-302.00
-283.81
-248.54
-200.22
-145.19
-90.15
-40.17
2.24
37.07
65.65
89.44
109.18
124.94
136.54
144.12
148.48
150.76
152.12
153.21
154.02
154.07
152.92
150.45
147.08
143.50
140.31
137.56
134.55
130.03
122.73
111.97
98.12
82.47
66.81
52.67
40.62
30.09
19.68
7.75
-6.85
-24.28
-43.69
-63.56
-82.38
-99.21
-114.07
-127.93
-142.50
-159.67
-180.99
-206.93
-236.25
-265.79
-290.58
-305.01
-304.22
-285.74
-250.42
-202.31
-147.48
-92.24
-41.51
2.09
38.16
67.78
92.38
113.09
130.39
144.30
154.78
161.99
166.45
168.90
170.08
170.48
170.22
169.17
167.16
164.20
160.58
156.79
153.24
149.94
146.38
141.60
134.54
124.55
111.69
96.81
81.27
66.41
53.06
41.19
30.01
18.29
4.85
-10.90
-28.77
-47.84
-66.87
-84.80
-101.12
-116.06
-130.49
-145.61
-162.79
-183.19
-207.47
-235.09
-263.71
-289.03
-305.43
-307.47
-291.78
-258.51
-211.47
-156.91
-101.53
-50.52
-6.57
30.01
60.28
85.61
106.97
124.73
139.03
150.03
158.18
164.11
168.52
171.90
174.43
175.97
176.26
175.14
172.67
169.19
165.07
160.62
155.76
150.17
143.39
135.10
125.39
114.66
103.48
92.22
80.88
69.09
56.45
42.84
28.51
14.00
-0.33
-14.53
-29.10
-44.63
-61.40
-79.11
-97.04
-114.39
-130.80
-146.54
-162.46
-179.75
-199.65
-223.02
-249.72
-278.03
-304.33
-323.52
-330.27
-320.67
-293.83
-252.26
-201.13
-146.59
-93.95
-46.54
-5.59
29.08
58.17
82.17
101.22
115.33
124.84
130.66
134.17
136.95
140.19
144.31
148.78
152.58
154.67
154.60
152.71
149.88
147.02
144.54
142.11
138.99
134.38
127.81
119.39
109.59
98.97
87.95
76.66
65.06
53.01
40.60
28.10
15.96
4.59
-5.82
-15.50
