1629133218.00
64.000000
-0.00
-0.00
-0.00
-0.00
-0.00
-0.00
-0.00
-0.00
-0.00
-0.00
0.00
0.01
0.01
-0.00
-0.03
-0.05
-0.05
0.00
0.13
0.36
0.66
1.01
1.37
1.72
2.06
2.40
2.79
3.24
3.80
4.42
5.06
5.66
6.20
6.68
7.15
7.68
8.31
9.14
10.09
11.04
11.88
12.56
13.14
13.76
14.65
15.96
17.91
20.32
22.90
25.38
27.58
29.57
31.68
34.32
37.81
42.54
48.15
54.10
59.83
64.97
69.58
74.14
79.34
85.71
93.76
103.00
112.62
121.73
129.77
136.75
143.30
150.74
157.77
166.65
177.97
191.83
207.01
220.59
228.20
225.21
208.26
176.48
132.28
79.53
22.55
-35.44
-92.93
-149.70
-205.86
-261.12
-314.61
-364.80
-410.76
-451.80
-487.35
-516.61
-538.23
-550.47
-551.52
-540.20
-516.20
-480.66
-435.76
-384.24
-328.89
-272.08
-215.55
-160.41
-107.48
-57.38
-11.01
30.66
66.70
96.48
119.89
137.43
150.06
158.94
165.13
169.21
171.31
171.20
168.53
163.23
155.66
146.62
137.13
128.06
119.85
112.42
105.30
97.90
89.73
80.42
69.82
58.11
46.13
35.53
28.64
27.63
33.51
45.27
59.94
73.65
83.06
86.75
85.22
80.26
73.86
67.25
60.75
54.21
47.57
41.23
35.86
31.92
29.38
27.66
25.97
23.63
20.46
16.75
13.13
10.18
8.21
7.16
6.60
5.97
4.82
3.05
0.95
-0.82
-1.58
-0.97
0.91
3.50
6.10
8.19
9.57
10.27
10.38
9.83
8.46
6.14
3.03
-0.37
-3.43
-5.63
-6.75
-6.96
-6.61
-6.03
-5.41
-4.77
-4.09
-3.42
-2.87
-2.64
-2.81
-3.41
-4.26
-5.12
-5.75
-6.00
-5.88
-5.50
-5.06
-4.70
-4.51
-4.45
-4.42
-4.30
-3.97
-3.40
-2.61
-1.73
-0.93
-0.38
-0.19
-0.30
-0.53
-0.52
0.14
1.73
4.32
7.68
11.35
14.77
17.47
19.16
19.79
19.43
18.26
16.44
14.15
11.55
8.82
6.14
3.66
1.38
-0.75
-2.74
-4.56
-6.15
-7.47
-8.50
-9.33
-10.07
-10.78
-11.46
-12.02
-12.38
-12.50
-12.43
-12.30
-12.22
-12.24
-12.29
-12.25
-12.00
-11.47
-10.71
-9.83
-8.99
-8.34
-7.97
-7.94
-8.18
-8.54
-8.69
-8.20
-6.65
-3.86
0.02
4.42
8.54
11.61
13.17
13.18
11.94
9.92
7.53
5.05
2.65
0.47
-1.30
-2.44
-2.83
-2.48
-1.59
-0.46
0.57
1.27
1.53
1.39
0.99
0.50
0.01
-0.44
-0.97
-1.72
-2.87
-4.51
-6.54
-8.80
-11.05
-13.08
-14.77
-16.09
-17.13
-18.09
-19.25
-20.86
-23.16
-26.09
-29.23
-31.84
-32.96
-31.74
-27.74
-21.11
-12.60
-3.27
5.79
13.74
20.10
24.72
27.60
28.80
28.42
26.68
23.96
20.89
18.14
16.26
15.46
15.60
16.21
16.82
17.06
16.86
16.37
15.79
15.22
14.58
13.63
12.10
9.84
6.89
3.49
-0.04
-3.34
-6.20
-8.56
-10.55
-12.48
-14.73
-17.63
-21.24
-25.28
-29.02
-31.52
-31.81
-29.28
-23.86
-16.03
-6.71
3.02
12.20
20.17
26.51
31.04
33.68
34.42
33.40
30.89
27.41
23.59
20.09
17.36
15.60
14.71
14.43
14.45
14.54
14.61
14.61
14.46
14.01
13.06
11.40
8.91
5.64
1.82
-2.18
-5.98
-9.29
-12.05
-14.45
-16.83
-19.58
-22.93
-26.85
-31.02
-34.75
-37.25
-37.68
-35.47
-30.44
-22.88
-13.55
-3.50
6.19
14.54
20.96
25.24
27.51
28.12
27.45
25.81
23.45
20.62
17.60
14.82
12.69
11.53
11.41
12.13
13.29
14.50
15.46
15.98
15.99
15.42
14.18
12.22
9.63
6.57
3.31
0.08
-2.95
-5.74
-8.29
-10.61
-12.70
-14.58
-16.33
-18.11
-20.06
-22.27
-24.77
-27.47
-30.21
-32.74
-34.69
-35.54
-34.68
-31.64
-26.18
-18.56
-9.50
-0.05
8.76
16.10
21.58
25.14
26.96
27.27
26.30
24.29
21.56
18.54
15.72
13.51
12.19
11.77
12.08
12.87
13.86
14.82
15.56
15.88
15.65
14.77
13.25
11.18
8.72
6.00
3.17
0.31
-2.54
-5.34
-8.06
-10.67
-13.16
-15.50
-17.66
-19.68
-21.60
-23.60
-25.83
-28.48
-31.58
-34.92
-37.96
-39.91
-39.86
-37.15
-31.61
-23.66
-14.25
-4.55
4.40
11.90
17.66
21.67
24.06
25.02
24.79
23.66
21.97
20.08
18.27
16.76
15.69
15.14
15.14
15.63
16.44
17.33
18.06
18.43
18.38
17.88
16.92
15.50
13.60
11.28
8.70
6.07
3.59
1.32
-0.84
-3.10
-5.69
-8.68
-11.93
-15.09
-17.79
-19.77
-21.05
-21.92
-22.81
-24.12
-26.07
-28.64
-31.57
-34.39
-36.50
-37.21
-35.92
-32.27
-26.32
-18.58
-9.92
-1.29
6.44
12.72
17.33
20.25
21.64
21.74
20.90
19.53
18.07
16.82
15.97
15.47
15.22
15.13
15.16
15.38
15.83
16.48
17.21
17.80
18.04
17.74
16.86
15.42
13.56
11.46
9.30
7.19
5.21
3.35
1.59
-0.07
-1.65
-3.16
-4.66
-6.20
-7.86
-9.63
-11.48
-13.30
-15.02
-16.59
-18.02
-19.33
-20.56
-21.78
-23.14
-24.86
-27.13
-30.02
-33.28
-36.32
-38.26
-38.20
-35.54
-30.19
-22.68
-13.99
-5.24
2.60
8.96
13.66
16.79
18.54
19.07
18.57
17.24
15.44
13.63
12.22
11.44
11.31
11.65
12.26
12.96
13.69
14.44
15.16
15.77
16.15
16.16
15.74
14.87
13.61
12.06
10.36
8.70
7.23
6.04
5.12
4.31
3.45
2.43
1.26
0.05
-1.10
-2.18
-3.29
-4.60
-6.22
-8.15
-10.23
-12.23
-13.97
-15.39
-16.60
-17.85
-19.37
-21.36
-23.88
-26.81
-29.85
-32.49
-34.07
-33.93
-31.59
-26.97
-20.42
-12.71
-4.75
2.59
8.75
13.48
16.77
18.73
19.53
19.35
18.41
16.96
15.24
13.46
11.83
10.49
9.60
9.29
9.62
10.52
11.78
13.14
14.31
15.14
15.53
15.47
14.98
14.06
12.78
11.24
9.59
7.98
6.51
5.22
4.07
2.97
1.82
0.52
-0.97
-2.64
-4.44
-6.22
-7.87
-9.31
-10.57
-11.72
-12.86
-14.11
-15.56
-17.29
-19.38
-21.93
-24.91
-28.13
-31.23
-33.69
-34.90
-34.37
-31.83
-27.39
-21.47
-14.75
-7.92
-1.60
3.84
8.21
11.46
13.60
14.68
14.83
14.25
13.25
12.11
11.08
10.31
9.90
9.88
10.26
10.98
11.89
12.83
13.60
14.11
14.34
14.35
14.15
13.74
13.02
11.96
10.57
8.96
7.25
5.51
3.77
2.01
0.23
-1.52
-3.17
-4.66
-6.01
-7.31
-8.65
-10.09
-11.61
-13.13
-14.53
-15.78
-16.89
-18.06
-19.49
-21.39
-23.78
-26.42
-28.76
-30.13
-29.94
-27.83
-23.89
-18.52
-12.35
-6.08
-0.28
4.59
8.23
10.45
11.24
10.80
9.53
8.02
6.80
6.30
6.66
7.77
9.32
10.97
12.42
13.55
14.38
15.01
15.55
16.09
16.64
17.15
17.53
17.65
17.38
16.65
15.40
13.68
11.61
9.33
6.99
4.74
2.69
0.90
-0.67
-2.10
-3.51
-4.96
-6.46
-7.96
-9.40
-10.85
-12.48
-14.53
-17.16
-20.28
-23.54
-26.42
-28.32
-28.83
-27.76
-25.16
-21.28
-16.50
-11.24
-5.95
-1.03
3.18
6.47
8.76
10.06
10.45
10.04
9.00
7.51
5.81
4.19
2.90
2.13
1.94
2.30
3.02
3.86
4.61
5.07
5.14
4.81
4.13
3.22
2.17
1.09
0.03
-0.98
-1.91
-2.75
-3.50
-4.12
-4.62
-5.00
-5.24
-5.36
-5.37
-5.34
-5.41
-5.73
-6.48
-7.70
-9.26
-10.84
-11.99
-12.23
-11.19
-8.76
-5.11
-0.68
3.94
8.17
11.53
13.79
14.91
15.00
14.26
12.88
11.07
9.04
7.01
5.21
3.83
2.96
2.67
2.92
3.63
4.66
5.79
6.76
7.35
7.47
7.14
6.46
5.57
4.48
3.11
1.36
-0.84
-3.40
-6.08
-8.62
-10.85
-12.73
-14.36
-15.93
-17.64
-19.62
-21.91
-24.40
-26.84
-28.86
-29.98
-29.81
-28.14
-25.01
-20.76
-15.92
-11.05
-6.55
-2.64
0.75
3.83
6.80
9.63
12.04
13.53
13.64
12.18
9.46
6.13
2.98
0.61
-0.76
-1.24
-1.02
-0.14
1.59
4.39
8.27
12.84
17.38
21.16
23.72
25.08
25.63
25.97
26.57
27.66
29.26
31.25
33.53
36.05
38.81
41.77
44.82
47.78
50.40
52.42
53.62
53.87
53.14
51.49
49.07
45.98
42.24
37.81
32.53
26.29
19.06
10.96
2.23
-6.86
-16.09
-25.41
-34.83
-44.40
-54.01
-63.30
-71.70
-78.58
-83.40
-85.95
-86.25
-84.53
-81.04
-76.11
-70.13
-63.56
-56.98
-50.98
-46.03
-42.37
-39.89
-38.24
-36.95
-35.62
-33.89
-31.57
-28.60
-25.02
-21.00
-16.70
-12.37
-8.35
-5.06
-2.67
-1.04
0.27
1.79
3.94
6.81
10.04
12.89
14.64
15.46
16.31
18.47
22.70
28.65
34.95
39.67
41.15
38.69
33.58
28.10
24.45
23.53
24.82
27.11
29.35
31.11
32.49
34.70
39.00
46.08
55.85
67.89
82.17
98.94
117.95
132.32
134.43
119.66
90.28
54.00
19.14
-8.75
-27.73
-38.90
-44.97
-47.77
-47.87
-44.97
-39.04
-30.98
-22.49
-15.34
-10.84
-9.39
-9.78
-10.12
-8.98
-6.28
-2.90
-0.60
-0.50
-2.76
-6.74
-10.95
-13.92
-14.88
-13.95
-11.93
-9.68
-7.64
-5.87
-4.20
-2.28
0.23
3.45
7.16
10.98
14.46
17.39
19.68
21.35
22.31
22.64
22.35
21.40
19.78
17.55
14.94
12.24
9.64
7.14
4.62
1.88
-1.16
-4.42
-7.68
-10.74
-13.49
-16.00
-18.36
-20.62
-22.77
-24.77
-26.61
-28.41
-30.24
-32.06
-33.60
-34.37
-33.83
-31.66
-27.94
-23.15
-18.05
-13.39
-9.72
-7.26
-5.96
-5.51
-5.52
-5.56
-5.16
-3.90
-1.47
2.17
6.73
11.57
15.95
19.22
21.12
21.86
21.96
22.04
22.52
23.49
24.75
25.91
26.67
26.88
26.60
26.00
25.25
24.49
23.75
23.01
22.21
21.32
20.26
19.01
17.52
15.82
13.95
11.91
9.65
6.99
3.61
-0.78
-6.34
-12.94
-20.05
-26.91
-32.61
-36.42
-37.91
-37.06
-34.14
-29.62
-24.01
-17.83
-11.60
-5.86
-1.07
2.45
4.59
5.49
5.44
4.74
3.64
2.35
1.04
-0.08
-0.85
-1.21
-1.33
-1.46
-1.89
-2.71
-3.86
-5.14
-6.36
-7.48
-8.56
-9.74
-11.10
-12.57
-14.01
-15.28
-16.37
-17.40
-18.61
-20.20
-22.23
-24.51
-26.71
-28.49
-29.63
-30.12
-30.12
-29.88
-29.58
-29.30
-29.02
-28.68
-28.17
-27.38
-26.08
-24.00
-20.88
-16.55
-11.13
-5.06
0.99
6.19
9.86
11.62
11.50
9.90
7.42
4.65
1.99
-0.29
-2.07
-3.24
-3.68
-3.37
-2.45
-1.28
-0.25
0.33
0.43
0.29
0.26
0.58
1.26
2.12
2.94
3.61
4.22
4.89
5.72
6.66
7.54
8.24
8.79
9.40
10.42
12.12
14.55
17.46
20.33
22.58
23.71
23.48
21.95
19.39
16.14
12.53
8.73
4.75
0.53
-3.93
-8.52
-12.93
-16.69
-19.26
-20.14
-19.06
-15.99
-11.22
-5.27
1.14
7.29
12.53
16.46
18.95
20.21
20.63
20.66
20.65
20.74
20.88
20.90
20.67
20.10
19.22
18.14
16.96
15.75
14.56
13.40
12.31
11.30
10.34
9.37
8.29
6.98
5.33
3.34
1.10
-1.22
-3.39
-5.20
-6.54
-7.47
-8.15
-8.83
-9.74
-11.02
-12.70
-14.71
-16.98
-19.42
-21.97
-24.52
-26.95
-29.16
-31.12
-32.91
-34.63
-36.31
-37.77
-38.63
-38.40
-36.62
-33.06
-27.78
-21.15
-13.78
-6.38
0.42
6.13
10.49
13.47
15.16
15.74
15.50
14.76
13.88
13.26
13.15
13.61
14.51
15.56
16.50
17.21
17.65
17.88
17.94
17.81
17.49
17.02
16.50
16.02
15.58
15.09
14.40
13.39
12.09
10.61
9.10
7.68
6.36
5.12
3.90
2.68
1.49
0.32
-0.88
-2.15
-3.63
-5.35
-7.32
-9.43
-11.53
-13.46
-15.09
-16.39
-17.41
-18.33
-19.40
-20.86
-22.77
-24.94
-26.91
-27.99
-27.55
-25.16
-20.84
-14.99
-8.31
-1.58
4.54
9.57
13.29
15.70
16.94
17.23
16.88
16.12
15.12
14.01
12.87
11.82
11.02
10.64
10.77
11.38
12.32
13.38
14.37
15.15
15.68
15.91
15.84
15.40
14.55
13.26
11.60
9.71
7.77
5.97
4.43
3.19
2.18
1.27
0.34
-0.66
-1.72
-2.76
-3.74
-4.70
-5.77
-7.05
-8.61
-10.38
-12.19
-13.84
-15.19
-16.21
-16.97
-17.66
-18.49
-19.66
-21.26
-23.29
-25.62
-27.95
-29.90
-31.03
-30.90
-29.12
-25.51
-20.15
-13.44
-6.09
1.12
7.50
12.63
16.45
19.14
20.99
22.23
23.02
23.47
23.65
23.67
23.61
23.53
23.43
23.31
23.23
23.24
23.49
24.02
24.80
25.71
26.56
27.16
27.35
27.04
26.22
24.94
23.37
21.73
20.27
19.19
18.55
18.20
17.88
17.20
15.84
13.65
10.71
7.31
3.84
0.70
-1.81
-3.58
-4.65
-5.26
-5.71
-6.34
-7.43
-9.16
-11.56
-14.53
-17.91
-21.49
-25.09
-28.60
-32.03
-35.53
-39.31
-43.68
-48.87
-54.95
-61.65
-68.40
-74.40
-78.77
-80.85
-80.43
-77.77
-73.55
-68.60
-63.58
-58.76
-53.91
-48.47
-41.81
-33.54
-23.69
-12.72
-1.38
9.53
19.38
27.82
34.74
40.19
44.30
47.28
49.36
50.81
51.87
52.67
53.20
53.33
52.85
51.56
49.36
46.26
42.46
38.26
34.06
30.22
26.94
24.22
21.86
19.58
17.12
14.41
11.48
8.47
5.55
2.84
0.35
-1.94
-4.10
-6.21
-8.31
-10.41
-12.52
-14.63
-16.81
-19.20
-21.89
-24.88
-27.97
-30.74
-32.68
-33.29
-32.27
-29.57
-25.36
-20.04
-14.10
-8.12
-2.61
2.02
5.59
8.09
9.72
10.70
11.22
11.39
11.25
10.82
10.15
9.39
8.69
8.23
8.13
8.46
9.23
10.32
11.64
13.03
14.40
15.62
16.58
17.15
17.19
16.59
15.40
13.78
12.00
10.34
8.99
7.97
7.20
6.51
5.71
4.66
3.32
1.76
0.16
-1.28
-2.40
-3.26
-4.02
-4.98
-6.34
-8.12
-10.15
-12.14
-13.86
-15.23
-16.34
-17.36
-18.48
-19.83
-21.45
-23.28
-25.12
-26.62
-27.27
-26.55
-24.11
-19.90
-14.31
-7.99
-1.72
3.90
8.53
12.08
14.61
16.17
16.77
16.40
15.16
13.29
11.20
9.33
8.03
7.42
7.39
7.70
8.05
8.24
8.20
8.00
7.79
7.69
7.70
7.72
7.56
7.04
6.10
4.80
3.31
1.75
0.21
-1.35
-2.97
-4.64
-6.29
-7.79
-9.07
-10.18
-11.26
-12.48
-13.91
-15.52
-17.18
-18.78
-20.30
-21.81
-23.47
-25.33
-27.26
-28.90
-29.69
-29.06
-26.63
-22.31
-16.43
-9.63
-2.70
3.64
8.84
12.68
15.18
16.53
16.97
16.73
15.95
14.77
13.32
11.80
10.42
9.40
8.88
8.89
9.39
10.27
11.39
12.62
13.84
14.86
15.53
15.66
15.23
14.27
12.96
11.50
10.05
8.67
7.34
5.98
4.55
3.04
1.51
0.01
-1.46
-2.99
-4.70
-6.65
-8.83
-11.10
-13.28
-15.23
-16.97
-18.61
-20.37
-22.42
-24.83
-27.52
-30.27
-32.77
-34.59
-35.17
-33.97
-30.60
-25.01
-17.59
-9.16
-0.71
6.86
12.99
17.50
20.52
22.29
23.04
22.94
22.15
20.84
19.29
17.79
16.61
15.90
15.71
16.01
16.70
17.68
18.79
19.86
20.75
21.32
21.51
21.34
20.83
20.01
18.89
17.44
15.71
13.75
11.68
9.64
7.70
5.87
4.11
2.36
0.57
-1.27
-3.12
-4.93
-6.67
-8.32
-9.89
-11.40
-12.90
-14.43
-16.09
-17.99
-20.26
-22.94
-25.91
-28.81
-31.01
-31.83
-30.62
-27.10
-21.40
-14.09
-6.04
1.83
8.80
14.41
18.51
21.13
22.43
22.59
21.81
20.37
18.62
16.88
15.44
14.47
14.03
14.09
14.54
15.27
16.13
16.98
17.68
18.14
18.33
18.27
18.00
17.49
16.65
15.41
13.75
11.76
9.61
7.49
5.53
3.76
2.13
0.53
-1.09
-2.71
-4.32
-5.84
-7.26
-8.55
-9.77
-11.01
-12.37
-14.03
-16.08
-18.49
-20.99
-23.11
-24.22
-23.77
-21.40
-17.10
-11.26
-4.47
2.49
8.90
14.20
18.04
20.30
21.07
20.59
19.15
17.07
14.58
11.94
9.32
6.89
4.77
3.03
1.72
0.77
0.06
-0.61
-1.46
-2.65
-4.20
-5.99
-7.83
-9.48
-10.83
-11.80
-12.43
-12.73
-12.68
-12.30
-11.67
-10.90
-10.16
-9.51
-8.91
-8.17
-7.10
-5.65
-4.06
-2.77
-2.24
-2.70
-3.90
-5.18
-5.60
-4.33
-0.95
4.34
10.79
17.38
23.17
27.54
30.28
31.50
31.36
29.98
27.45
23.94
19.78
15.48
11.56
8.40
6.08
4.40
3.00
1.58
0.01
-1.65
-3.20
-4.52
-5.58
-6.49
-7.41
-8.46
-9.65
-10.92
-12.16
-13.37
-14.60
-15.95
-17.46
-19.01
-20.40
-21.45
-22.03
-22.16
-21.98
-21.64
-21.27
-20.99
-20.87
-20.93
-21.08
-21.05
-20.41
-18.62
-15.26
-10.14
-3.50
4.08
11.77
18.72
24.32
28.28
30.65
31.72
31.88
31.43
30.56
29.39
28.05
26.69
25.53
24.73
24.34
24.28
24.37
24.45
24.43
24.31
24.11
23.84
23.38
22.54
21.13
19.08
16.52
13.75
11.11
8.82
6.93
5.31
3.75
2.12
0.37
-1.44
-3.23
-5.00
-6.82
-8.77
-10.87
-12.97
-14.86
-16.35
-17.39
-18.08
-18.62
-19.21
-19.98
-20.98
-22.24
-23.81
-25.72
-27.90
-30.06
-31.73
-32.34
-31.49
-29.08
-25.36
-20.81
-16.00
-11.38
-7.27
-3.77
-0.91
1.42
3.29
4.76
5.80
6.32
6.30
5.84
5.19
4.75
4.82
5.48
6.58
7.75
8.63
9.01
8.89
8.42
7.80
7.12
6.40
5.57
4.56
3.36
2.06
0.79
-0.29
-1.11
-1.70
-2.18
-2.73
-3.49
-4.48
-5.63
-6.86
-8.11
-9.39
-10.80
-12.44
-14.39
-16.66
-19.26
-22.20
-25.50
-29.06
-32.64
-35.75
-37.73
-37.92
-35.81
-31.34
-24.85
-17.13
-9.14
-1.80
4.21
8.60
11.40
12.91
13.45
13.31
12.71
11.79
10.74
9.78
9.15
8.97
9.27
9.90
10.67
11.42
12.11
12.83
13.65
14.61
15.63
16.54
17.14
17.36
17.23
16.91
16.64
16.66
17.09
17.89
18.88
19.79
20.34
20.34
19.73
18.56
16.99
15.22
13.45
11.80
10.27
8.73
6.99
4.85
2.21
-0.86
-4.17
-7.51
-10.71
-13.71
-16.55
-19.28
-21.98
-24.66
-27.40
-30.30
-33.44
-36.73
-39.81
-42.03
-42.61
-40.93
-36.73
-30.32
-22.40
-13.91
-5.67
1.67
7.73
12.33
15.38
16.88
16.91
15.76
13.85
11.69
9.69
8.15
7.18
6.73
6.71
7.08
7.80
8.84
10.11
11.42
12.55
13.29
13.52
13.26
12.63
11.77
10.82
9.84
8.86
7.86
6.83
5.78
4.72
3.72
2.83
2.10
1.49
0.92
0.22
-0.74
-2.00
-3.46
-4.97
-6.33
-7.42
-8.24
-8.87
-9.40
-9.94
-10.54
-11.21
-11.96
-12.76
-13.63
-14.55
-15.54
-16.65
-17.94
-19.53
-21.48
-23.76
-26.20
-28.45
-29.99
-30.32
-29.08
-26.21
-21.96
-16.87
-11.59
-6.74
-2.76
0.16
2.01
2.97
3.21
2.90
2.15
1.02
-0.40
-1.94
-3.39
-4.53
-5.13
-5.07
-4.24
-2.50
0.35
4.50
10.02
16.71
24.08
31.41
37.95
43.07
46.45
48.03
48.03
46.77
44.64
41.96
38.95
35.76
32.42
28.95
25.38
21.79
18.30
15.07
12.20
9.62
7.14
4.44
1.28
-2.41
-6.46
-10.47
-13.97
-16.52
-17.75
-17.50
-15.75
-12.68
-8.66
-4.22
0.09
3.76
6.51
8.23
9.03
9.06
8.52
7.61
6.51
5.37
4.31
3.38
2.60
1.98
1.56
1.39
1.52
1.95
2.63
3.47
4.35
5.14
5.66
5.72
5.19
4.02
2.33
0.39
-1.52
-3.15
-4.43
-5.44
-6.39
-7.45
-8.76
-10.32
-12.04
-13.79
-15.43
-16.85
-18.03
-19.00
-19.86
-20.77
-21.86
-23.14
-24.50
-25.57
-25.87
-24.90
-22.34
-18.23
-12.95
-7.18
-1.62
3.14
6.80
9.32
10.83
11.49
11.44
10.77
9.59
8.11
6.65
5.54
5.07
5.35
6.28
7.64
9.10
10.40
11.39
12.00
12.26
12.20
11.84
11.16
10.17
8.84
7.19
5.29
3.21
1.08
-1.00
-2.98
-4.85
-6.67
-8.52
-10.44
-12.39
-14.29
-16.03
-17.55
-18.88
-20.16
-21.52
-23.10
-24.94
-27.00
-29.22
-31.48
-33.60
-35.28
-36.03
-35.34
-32.78
-28.24
-22.00
-14.74
-7.33
-0.60
4.87
8.84
11.35
12.62
12.93
12.55
11.72
10.63
9.48
8.50
7.95
8.00
8.73
10.06
11.79
13.66
15.44
16.98
18.23
19.19
19.82
20.08
19.92
19.28
18.16
16.58
14.67
12.60
10.55
8.72
7.19
5.91
4.66
3.12
1.01
-1.80
-5.22
-8.90
-12.42
-15.42
-17.79
-19.66
-21.36
-23.25
-25.55
-28.28
-31.26
-34.20
-36.71
-38.34
-38.52
-36.74
-32.69
-26.42
-18.47
-9.77
-1.38
5.80
11.25
14.82
16.65
16.99
16.08
14.10
11.24
7.76
3.99
0.37
-2.63
-4.60
-5.28
-4.69
-3.10
-1.03
0.99
2.48
3.26
3.42
3.36
3.63
4.77
7.15
10.90
15.78
21.31
26.82
31.63
35.17
37.12
37.40
36.14
33.62
30.21
26.27
22.13
18.04
14.15
10.54
7.21
4.05
0.87
-2.59
-6.60
-11.30
-16.57
-21.98
-26.80
-30.16
-31.31
-29.79
-25.69
-19.49
-12.03
-4.14
3.41
10.10
15.60
19.71
22.27
23.16
22.45
20.38
17.41
14.14
11.15
8.90
7.65
7.44
8.16
9.60
11.47
13.47
15.30
16.74
17.67
18.10
18.08
17.66
16.81
15.45
13.53
11.15
8.51
5.91
3.57
1.55
-0.27
-2.12
-4.20
-6.58
-9.20
-11.89
-14.45
-16.71
-18.61
-20.18
-21.63
-23.27
-25.37
-28.05
-31.09
-33.96
-35.92
-36.24
-34.41
-30.23
-23.92
-16.02
-7.29
1.39
9.20
15.55
20.07
22.68
23.48
22.68
20.62
17.69
14.39
11.24
8.69
7.03
6.39
6.72
7.87
9.62
11.73
13.92
15.89
17.37
18.16
18.15
17.31
15.70
13.48
10.88
8.16
5.54
3.09
0.73
-1.74
-4.47
-7.48
-10.61
-13.60
-16.16
-18.15
-19.60
-20.69
-21.73
-23.09
-25.09
-27.88
-31.32
-34.91
-37.85
-39.18
-38.10
-34.21
-27.63
-18.99
-9.25
0.51
9.36
16.63
21.97
25.30
26.76
26.58
25.08
22.64
19.69
16.71
14.18
12.47
11.75
12.01
13.02
14.53
16.27
18.07
19.81
21.38
22.60
23.28
23.21
22.28
20.49
17.96
14.91
11.58
8.21
4.97
1.92
-0.96
-3.75
-6.52
-9.29
-12.04
-14.65
-17.00
-18.98
-20.56
-21.83
-23.03
-24.54
-26.70
-29.72
-33.46
-37.35
-40.49
-41.83
-40.43
-35.78
-27.97
-17.67
-5.97
5.85
16.61
25.43
31.82
35.63
37.01
36.23
33.70
29.92
25.49
21.03
17.14
14.25
12.64
12.32
13.11
14.66
16.55
18.37
19.73
20.41
20.33
19.51
18.10
16.27
14.24
12.16
10.17
8.29
6.46
4.59
2.58
0.41
-1.86
-4.10
-6.19
-8.10
-9.90
-11.67
-13.49
-15.33
-17.09
-18.72
-20.24
-21.82
-23.73
-26.25
-29.58
-33.71
-38.28
-42.63
-45.82
-46.88
-45.07
-40.14
-32.50
-23.09
-13.18
-3.97
3.65
9.24
12.70
14.16
13.79
11.79
8.45
4.24
-0.27
-4.40
-7.54
-9.27
-9.37
-7.84
-4.86
-0.81
3.83
8.50
12.71
16.09
18.52
20.05
20.84
21.06
20.84
20.28
19.54
18.84
18.50
18.81
19.93
21.86
24.38
27.11
29.63
31.49
32.37
32.12
30.76
28.47
25.44
21.85
17.72
12.97
7.42
0.88
-6.65
-14.97
-23.53
-31.47
-37.75
-41.30
-41.37
-37.74
-30.88
-21.80
-11.87
-2.39
5.65
11.71
15.65
17.62
17.89
16.79
14.72
12.16
9.60
7.52
6.26
5.99
6.73
8.38
10.76
13.62
16.67
19.53
21.85
23.29
23.62
22.78
20.84
18.03
14.64
10.90
7.00
3.09
-0.66
-4.03
-6.79
-8.81
-10.14
-11.02
-11.84
-12.93
-14.40
-16.10
-17.67
-18.76
-19.17
-18.91
-18.22
-17.47
-17.05
-17.31
-18.51
-20.68
-23.58
-26.56
-28.67
-28.84
-26.25
-20.54
-12.09
-1.87
8.76
18.49
26.35
31.87
35.11
36.35
36.00
34.39
31.87
28.82
25.67
22.89
20.79
19.51
18.91
18.77
18.82
18.91
18.98
18.99
18.85
18.37
17.35
15.70
13.45
10.81
8.01
5.25
2.64
0.18
-2.16
-4.44
-6.68
-8.87
-10.96
-12.94
-14.86
-16.80
-18.84
-20.98
-23.18
-25.24
-27.02
-28.38
-29.31
-29.94
-30.54
-31.43
-32.94
-35.33
-38.63
-42.58
-46.55
-49.57
-50.58
-48.72
-43.60
-35.51
-25.34
-14.33
-3.76
5.35
12.41
17.28
20.17
21.49
21.71
21.26
20.50
19.69
19.09
18.88
19.19
20.05
21.34
22.84
24.33
25.63
26.67
27.51
28.15
28.55
28.56
27.99
26.72
24.81
22.43
19.87
17.40
15.23
13.41
11.89
10.53
9.15
7.63
5.96
4.21
2.53
1.05
-0.15
-1.08
-1.80
-2.42
-3.11
-4.04
-5.40
-7.29
-9.72
-12.54
-15.53
-18.43
-21.09
-23.46
-25.60
-27.69
-29.92
-32.58
-35.89
-39.85
-44.07
-47.67
-49.51
-48.51
-44.12
-36.56
-26.81
-16.26
-6.24
2.32
9.00
13.78
16.87
18.51
18.97
18.54
17.58
16.43
15.44
14.85
14.77
15.21
16.06
17.18
18.41
19.58
20.57
21.27
21.56
21.39
20.73
19.56
17.96
16.03
13.87
11.57
9.20
6.79
4.39
2.04
-0.19
-2.21
-4.00
-5.54
-6.91
-8.21
-9.55
-11.04
-12.71
-14.58
-16.56
-18.57
-20.51
-22.30
-23.93
-25.50
-27.22
-29.36
-32.13
-35.49
-39.03
-41.97
-43.30
-42.11
-37.93
-30.90
-21.78
-11.75
-2.03
6.41
13.04
17.77
20.83
22.56
23.27
23.19
22.52
21.50
20.40
19.54
19.19
19.45
20.25
21.38
22.58
23.66
24.54
25.22
25.69
25.91
25.75
25.07
23.79
21.96
19.72
17.30
14.89
12.61
10.57
8.80
7.30
6.02
4.83
3.53
1.95
0.04
-2.07
-4.16
-6.02
-7.59
-9.00
-10.51
-12.37
-14.69
-17.36
-20.16
-22.80
-25.13
-27.14
-28.99
-30.95
-33.30
-36.26
-39.90
-44.07
-48.32
-51.90
-53.81
-53.05
-49.00
-41.66
-31.78
-20.65
-9.75
-0.21
7.34
12.87
16.71
19.29
20.98
22.02
22.58
22.88
23.12
23.52
24.25
25.32
26.66
28.12
29.52
30.76
31.76
32.48
32.88
32.89
32.44
31.46
29.97
28.07
25.97
23.87
21.96
20.29
18.86
17.57
16.33
15.04
13.68
12.25
10.78
9.35
8.04
6.95
6.12
5.52
5.00
4.40
3.54
2.37
0.95
-0.54
-1.96
-3.25
-4.48
-5.78
-7.27
-8.93
-10.67
-12.34
-13.86
-15.27
-16.71
-18.28
-20.02
-21.85
-23.67
-25.41
-27.11
-28.88
-30.84
-33.11
-35.71
-38.67
-41.95
-45.42
-48.73
-51.24
-52.11
-50.51
-45.94
-38.52
-28.95
-18.41
-8.15
0.84
8.01
13.28
16.84
18.98
19.99
20.14
19.72
19.09
18.61
18.57
19.12
20.17
21.51
22.88
24.09
25.07
25.86
26.51
27.05
27.44
27.58
27.35
26.65
25.44
23.73
21.65
19.38
17.16
15.15
13.43
11.98
10.71
9.49
8.23
6.84
5.27
3.50
1.57
-0.43
-2.33
-3.98
-5.34
-6.51
-7.71
-9.19
-11.11
-13.53
-16.35
-19.41
-22.51
-25.45
-28.09
-30.35
-32.27
-34.01
-35.84
-37.98
-40.48
-43.11
-45.30
-46.24
-45.08
-41.22
-34.61
-25.75
-15.65
-5.53
3.49
10.63
15.57
18.34
19.28
18.83
17.50
15.76
14.08
12.84
12.27
12.48
13.43
14.95
16.78
18.65
20.29
21.52
22.26
22.47
22.19
21.40
20.10
18.30
16.04
13.46
10.75
8.07
5.57
3.32
1.35
-0.36
-1.82
-3.12
-4.42
-5.90
-7.69
-9.80
-12.13
-14.47
-16.65
-18.58
-20.32
-22.03
-23.95
-26.29
-29.22
-32.81
-36.96
-41.28
-45.06
-47.33
-47.11
-43.75
-37.19
-28.08
-17.55
-6.92
2.67
10.50
16.30
20.16
22.34
23.20
23.14
22.58
21.94
21.56
21.63
22.17
23.11
24.29
25.58
26.86
28.01
28.89
29.37
29.31
28.66
27.48
25.96
24.33
22.75
21.22
19.60
17.68
15.31
12.50
9.39
6.27
3.43
1.07
-0.72
-2.05
-3.12
-4.18
-5.45
-7.06
-9.03
-11.35
-13.98
-16.85
-19.87
-22.89
-25.76
-28.45
-31.08
-33.92
-37.18
-40.79
-44.16
-46.34
-46.25
-43.11
-36.77
-27.83
-17.42
-6.82
2.81
10.73
16.62
20.52
22.68
23.46
23.25
22.42
21.40
20.55
20.21
20.55
21.57
23.08
24.80
26.45
27.86
28.90
29.57
29.84
29.72
29.22
28.37
27.23
25.89
24.42
22.85
21.21
19.54
17.91
16.35
14.90
13.54
12.23
10.92
9.62
8.36
7.15
5.97
4.74
3.36
1.75
-0.07
-2.03
-4.03
-5.98
-7.90
-9.91
-12.11
-14.58
-17.26
-19.98
-22.50
-24.66
-26.43
-27.97
-29.64
-31.84
-34.86
-38.64
-42.78
-46.46
-48.70
-48.57
-45.48
-39.33
-30.59
-20.19
-9.34
0.75
9.14
15.34
19.31
21.40
22.13
21.98
21.32
20.39
19.40
18.62
18.33
18.78
20.00
21.76
23.65
25.25
26.30
26.78
26.90
26.87
26.82
26.66
26.18
25.16
23.54
21.47
19.27
17.29
15.74
14.64
13.78
12.87
11.70
10.24
8.65
7.15
5.93
5.04
4.38
3.73
2.87
1.62
-0.05
-2.06
-4.22
-6.32
-8.18
-9.79
-11.25
-12.77
-14.52
-16.56
-18.78
-20.96
-22.92
-24.59
-26.05
-27.50
-29.17
-31.25
-33.89
-37.06
-40.46
-43.51
-45.35
-45.06
-41.96
-35.90
-27.35
-17.35
-7.17
2.02
9.40
14.62
17.70
18.97
18.88
17.93
16.60
15.31
14.33
13.81
13.76
14.15
14.91
15.98
17.32
18.84
20.40
21.86
23.07
23.91
24.27
24.07
23.28
21.90
20.08
18.03
15.96
14.04
12.32
10.76
9.31
7.94
6.65
5.49
4.48
3.59
2.82
2.18
1.66
1.18
0.62
-0.20
-1.42
-3.07
-5.08
-7.28
-9.52
-11.72
-13.82
-15.81
-17.66
-19.37
-20.94
-22.49
-24.19
-26.22
-28.73
-31.73
-34.98
-37.99
-39.96
-40.05
-37.60
-32.38
-24.79
-15.75
-6.46
1.99
8.79
13.63
16.58
17.93
18.09
17.41
16.21
14.73
13.19
11.78
10.74
10.25
10.44
11.31
12.69
14.32
15.91
17.26
18.28
18.99
19.38
19.39
18.91
17.77
15.96
13.56
10.87
8.20
5.91
4.20
3.08
2.44
2.00
1.50
0.74
-0.32
-1.62
-2.98
-4.25
-5.33
-6.24
-7.11
-8.09
-9.32
-10.85
-12.68
-14.71
-16.79
-18.79
-20.65
-22.38
-24.12
-26.08
-28.46
-31.25
-34.20
-36.69
-37.95
-37.19
-33.94
-28.22
-20.60
-11.98
-3.37
4.42
10.85
15.68
18.85
20.40
20.47
19.32
17.33
15.02
12.88
11.35
10.68
10.87
11.79
13.16
14.69
16.12
17.31
18.22
18.86
19.25
19.32
18.98
18.10
16.68
14.83
12.76
10.71
8.83
7.13
5.50
3.81
2.00
0.12
-1.68
-3.27
-4.54
-5.54
-6.40
-7.28
-8.37
-9.74
-11.40
-13.23
-15.15
-17.04
-18.90
-20.79
-22.83
-25.14
-27.77
-30.67
-33.59
-36.05
-37.40
-36.91
-34.05
-28.72
-21.37
-12.89
-4.37
3.22
9.25
13.46
15.86
16.63
16.00
14.23
11.70
8.86
6.24
4.27
3.27
3.34
4.38
6.13
8.19
10.12
11.58
12.40
12.65
12.51
12.15
11.60
10.74
9.38
7.42
4.98
2.31
-0.29
-2.64
-4.76
-6.82
-8.93
-11.11
-13.18
-14.93
-16.24
-17.20
-18.13
-19.43
-21.49
-24.44
-28.08
-31.85
-34.88
-36.25
-35.19
-31.34
-24.93
-16.72
-7.81
0.67
7.89
13.42
17.18
19.32
20.01
19.47
17.95
15.82
13.56
11.67
10.53
10.29
10.90
12.14
13.72
15.34
16.81
17.97
18.78
19.20
19.22
18.76
17.72
16.00
13.61
10.73
7.66
4.74
2.18
-0.01
-1.97
-3.90
-5.94
-8.11
-10.31
-12.47
-14.57
-16.68
-18.92
-21.45
-24.38
-27.81
-31.68
-35.68
-39.21
-41.42
-41.39
-38.50
-32.61
-24.31
-14.69
-5.10
3.31
9.86
14.40
17.21
18.76
19.45
19.52
19.14
18.45
17.68
17.13
17.10
17.73
18.97
20.56
22.16
23.47
24.31
24.66
24.61
24.29
23.78
23.07
22.07
20.65
18.74
16.36
13.69
11.01
8.63
6.72
5.27
4.10
2.89
1.37
-0.63
-3.09
-5.85
-8.69
-11.34
-13.62
-15.51
-17.15
-18.88
-21.16
-24.37
-28.61
-33.58
-38.45
-42.03
-43.14
-40.89
-35.12
-26.44
-16.06
-5.40
4.25
12.07
17.78
21.46
23.45
24.12
23.82
22.90
21.74
20.71
20.17
20.35
21.31
22.86
24.68
26.41
27.77
28.64
29.06
29.17
29.08
28.79
28.23
27.27
25.84
23.97
21.84
19.63
17.52
15.62
13.93
12.44
11.12
9.96
8.94
8.02
7.12
6.13
4.91
3.37
1.49
-0.66
-2.90
-5.00
-6.72
-7.94
-8.71
-9.27
-9.93
-10.93
-12.41
-14.34
-16.57
-18.94
-21.30
-23.56
-25.64
-27.53
-29.37
-31.43
-34.02
-37.23
-40.77
-43.83
-45.25
-43.96
-39.37
-31.62
-21.61
-10.70
-0.27
8.61
15.35
19.87
22.42
23.37
23.14
22.10
20.63
19.14
18.03
17.65
18.21
19.64
21.67
23.87
25.81
27.21
27.98
28.26
28.21
28.02
27.73
27.30
26.58
25.43
23.76
21.61
19.13
16.57
14.16
12.07
10.29
8.74
7.29
5.84
4.32
2.74
1.13
-0.50
-2.15
-3.87
-5.74
-7.80
-10.09
-12.57
-15.16
-17.77
-20.30
-22.69
-24.91
-27.00
-28.99
-30.97
-33.09
-35.47
-38.20
-41.12
-43.75
-45.33
-45.01
-42.13
-36.54
-28.66
-19.39
-9.90
-1.24
5.81
10.92
14.13
15.74
16.15
15.69
14.62
13.14
11.49
10.01
9.11
9.12
10.19
12.14
14.59
17.06
19.19
20.80
21.87
22.45
22.50
21.98
20.80
19.00
16.77
14.34
11.98
9.81
7.82
5.90
3.96
1.98
0.04
-1.81
-3.55
-5.27
-7.14
-9.24
-11.53
-13.80
-15.85
-17.60
-19.14
-20.74
-22.70
-25.25
-28.49
-32.34
-36.52
-40.48
-43.37
-44.22
-42.18
-36.90
-28.75
-18.83
-8.58
0.65
8.01
13.27
16.66
18.64
19.64
19.99
19.93
19.68
19.43
19.32
19.43
19.69
20.00
20.25
20.40
20.48
20.61
20.91
21.44
22.12
22.75
23.00
22.59
21.41
19.55
17.30
15.02
13.01
11.40
10.18
9.19
8.19
7.00
5.55
3.91
2.28
0.87
-0.25
-1.19
-2.26
-3.76
-5.87
-8.50
-11.36
-14.10
-16.47
-18.44
-20.18
-21.97
-24.08
-26.71
-29.91
-33.54
-37.21
-40.29
-42.04
-41.71
-38.83
-33.37
-25.76
-16.88
-7.78
0.53
7.32
12.25
15.40
17.08
17.68
17.57
17.01
16.17
15.23
14.37
13.83
13.77
14.26
15.19
16.37
17.60
18.75
19.78
20.66
21.31
21.59
21.29
20.26
18.48
16.08
13.38
10.72
8.40
6.57
5.24
4.24
3.33
2.31
1.00
-0.62
-2.41
-4.16
-5.62
-6.65
-7.29
-7.77
-8.43
-9.56
-11.32
-13.64
-16.26
-18.88
-21.26
-23.35
-25.23
-27.16
-29.38
-32.02
-34.92
-37.62
-39.34
-39.25
-36.73
-31.62
-24.34
-15.77
-6.97
1.07
7.69
12.53
15.61
17.12
17.42
16.89
15.93
14.85
13.90
13.25
13.04
13.38
14.29
15.66
17.27
18.78
19.92
20.59
20.83
20.75
20.48
19.98
19.16
17.92
16.24
14.19
11.97
9.79
7.80
6.04
4.47
2.99
1.52
0.05
-1.30
-2.42
-3.20
-3.77
-4.40
-5.49
-7.35
-10.04
-13.32
-16.74
-19.84
-22.37
-24.29
-25.86
-27.44
-29.39
-31.95
-35.17
-38.83
-42.35
-44.91
-45.57
-43.53
-38.52
-30.81
-21.29
-11.19
-1.73
6.15
11.97
15.73
17.74
18.47
18.41
17.94
17.35
16.88
16.72
17.03
17.84
19.06
20.41
21.61
22.45
22.91
23.10
23.22
23.38
23.61
23.78
23.71
23.23
22.22
20.66
18.59
16.18
13.63
11.19
9.09
7.47
6.39
5.75
5.34
4.91
4.24
3.21
1.82
0.15
-1.66
-3.51
-5.35
-7.17
-8.96
-10.72
-12.44
-14.18
-16.02
-18.03
-20.25
-22.59
-24.92
-27.14
-29.25
-31.44
-33.92
-36.85
-40.07
-43.08
-45.03
-44.99
-42.28
-36.74
-28.82
-19.45
-9.77
-0.81
6.76
12.59
16.64
19.02
19.96
19.78
18.91
17.83
16.99
16.65
16.90
17.67
18.82
20.20
21.69
23.19
24.59
25.78
26.66
27.17
27.29
26.96
26.17
24.89
23.18
21.16
19.05
17.09
15.44
14.17
13.21
12.40
11.58
10.63
9.51
8.29
7.11
6.16
5.52
5.14
4.84
4.36
3.47
2.08
0.23
-1.88
-4.04
-6.07
-7.84
-9.33
-10.64
-11.94
-13.43
-15.26
-17.45
-19.89
-22.34
-24.59
-26.54
-28.28
-30.06
-32.16
-34.83
-38.09
-41.67
-44.94
-47.02
-46.99
-44.20
-38.55
-30.58
-21.33
-12.00
-3.56
3.44
8.92
13.07
16.14
18.22
19.35
19.52
18.89
17.80
16.73
16.16
16.37
17.36
18.83
20.42
21.81
22.93
23.88
24.81
25.79
26.63
27.06
26.79
25.75
24.05
21.97
19.79
17.71
15.82
14.12
12.62
11.31
10.18
9.21
8.38
7.64
7.01
6.44
5.89
5.20
4.21
2.80
1.01
-1.02
-3.04
-4.87
-6.45
-7.84
-9.20
-10.67
-12.35
-14.22
-16.23
-18.29
-20.30
-22.17
-23.86
-25.42
-26.99
-28.81
-31.08
-33.84
-36.78
-39.30
-40.56
-39.77
-36.47
-30.63
-22.77
-13.79
-4.71
3.52
10.22
15.05
18.00
19.30
19.32
18.44
17.03
15.40
13.85
12.70
12.24
12.64
13.88
15.72
17.77
19.62
20.99
21.78
22.06
21.97
21.63
21.07
20.27
19.21
17.92
16.46
14.90
13.33
11.77
10.24
8.75
7.35
6.06
4.88
3.84
2.94
2.17
1.47
0.79
0.01
-0.96
-2.21
-3.77
-5.64
-7.76
-10.04
-12.35
-14.54
-16.50
-18.19
-19.64
-21.02
-22.55
-24.44
-26.87
-29.87
-33.30
-36.81
-39.80
-41.52
-41.21
-38.35
-32.86
-25.21
-16.32
-7.28
0.89
7.51
12.25
15.15
16.44
16.48
15.63
14.19
12.45
10.65
9.02
7.77
7.09
7.10
7.80
9.10
10.81
12.72
14.61
16.28
17.54
18.25
18.32
17.69
16.42
14.64
12.62
10.72
9.37
8.94
9.55
11.02
12.90
14.60
15.67
15.97
15.69
15.21
14.93
15.03
15.50
16.10
16.52
16.48
15.79
14.40
12.41
10.05
7.64
5.45
3.71
2.43
1.52
0.71
-0.30
-1.79
-3.86
-6.31
-8.61
-9.96
-9.52
-6.76
-1.63
5.29
13.01
20.47
26.80
31.54
34.54
35.76
35.16
32.65
28.21
21.98
14.36
5.87
-2.96
-11.77
-20.41
-28.86
-37.11
-45.10
-52.65
-59.58
-65.78
-71.27
-76.10
-80.29
-83.73
-86.14
-87.16
-86.55
-84.18
-80.21
-74.92
-68.67
-61.79
-54.47
-46.77
-38.61
-29.87
-20.50
-10.59
-0.50
9.26
18.06
25.42
31.05
34.88
37.01
37.65
37.01
35.33
32.90
30.01
26.94
23.85
20.79
17.69
14.43
10.86
6.86
2.34
-2.71
-8.13
-13.48
-18.11
-21.18
-21.94
-19.94
-15.25
-8.48
-0.61
7.30
14.37
20.05
24.20
26.90
28.32
28.60
27.82
26.15
23.88
21.46
19.45
18.30
18.24
19.19
20.83
22.74
24.56
26.06
27.14
27.78
27.97
27.69
26.91
25.63
23.87
21.72
19.34
16.92
14.66
12.73
11.16
9.88
8.74
7.51
6.05
4.35
2.53
0.78
-0.72
-1.95
-3.00
-4.09
-5.46
-7.26
-9.49
-12.04
-14.70
-17.31
-19.70
-21.83
-23.71
-25.41
-27.13
-29.13
-31.65
-34.77
-38.22
-41.34
-43.18
-42.76
-39.41
-33.05
-24.28
-14.22
-4.20
4.56
11.23
15.52
17.58
17.87
16.97
15.42
13.61
11.81
10.18
8.84
7.95
7.65
8.01
9.01
10.54
12.38
14.34
16.24
17.91
19.15
19.70
19.34
18.02
15.89
13.33
10.78
8.56
6.73
5.12
3.44
1.49
-0.75
-3.05
-5.11
-6.57
-7.24
-7.15
-6.56
-5.91
-5.68
-6.23
-7.67
-9.76
-12.14
-14.47
-16.63
-18.82
-21.39
-24.69
-28.84
-33.68
-38.69
-43.01
-45.61
-45.44
-41.75
-34.44
-24.13
-12.03
0.47
12.15
22.31
30.70
37.36
42.33
45.62
47.21
47.25
46.08
44.25
42.35
40.83
39.99
39.88
40.41
41.40
42.60
43.74
44.53
44.71
44.02
42.26
39.33
35.32
30.48
25.23
20.04
15.31
11.20
7.71
4.65
1.84
-0.83
-3.32
-5.54
-7.41
-8.98
-10.43
-12.04
-14.02
-16.40
-19.02
-21.63
-23.96
-25.95
-27.69
-29.47
-31.57
-34.22
-37.46
-41.05
-44.55
-47.24
-48.38
-47.30
-43.67
-37.65
-29.86
-21.23
-12.81
-5.47
0.18
3.87
5.62
5.70
4.54
2.65
0.53
-1.38
-2.75
-3.34
-2.95
-1.47
1.14
4.71
8.94
13.38
17.59
21.22
24.04
25.96
26.92
26.96
26.19
24.79
22.98
20.99
18.95
16.90
14.84
12.77
10.75
8.84
7.09
5.51
4.03
2.57
1.08
-0.47
-2.06
-3.67
-5.29
-6.90
-8.52
-10.22
-12.09
-14.28
-16.94
-20.15
-23.87
-27.87
-31.63
-34.42
-35.45
-34.06
-30.02
-23.62
-15.64
-7.10
1.05
8.13
13.81
18.07
20.98
22.64
23.13
22.63
21.41
19.80
18.19
16.88
16.10
15.92
16.31
17.16
18.26
19.39
20.33
20.92
21.08
20.74
19.84
18.38
16.40
14.04
11.53
9.13
6.97
5.08
3.32
1.57
-0.19
-1.80
-3.04
-3.70
-3.76
-3.41
-2.96
-2.78
-3.11
-4.04
-5.46
-7.17
-8.93
-10.59
-12.14
-13.69
-15.42
-17.58
-20.34
-23.79
-27.74
-31.73
-34.99
-36.60
-35.76
-32.17
-26.14
-18.58
-10.65
-3.41
2.48
6.82
9.71
11.34
11.85
11.34
9.98
8.05
5.96
4.18
3.07
2.85
3.48
4.76
6.36
7.95
9.27
10.16
10.58
10.53
10.02
9.05
7.64
5.86
3.84
1.75
-0.27
-2.11
-3.73
-5.12
-6.36
-7.59
-9.00
-10.71
-12.69
-14.78
-16.71
-18.29
-19.55
-20.75
-22.25
-24.29
-26.71
-29.00
-30.40
-30.15
-27.83
-23.42
-17.29
-10.08
-2.52
4.69
10.95
15.83
19.07
20.63
20.69
19.61
17.88
15.98
14.38
13.43
13.28
13.93
15.20
16.79
18.40
19.77
20.77
21.37
21.68
21.75
21.59
21.16
20.31
18.93
16.98
14.55
11.83
9.05
6.40
3.94
1.68
-0.49
-2.58
-4.59
-6.43
-8.00
-9.28
-10.29
-11.16
-12.10
-13.39
-15.28
-17.92
-21.23
-24.79
-27.91
-29.78
-29.70
-27.33
-22.84
-16.88
-10.32
-4.01
1.51
6.03
9.59
12.34
14.30
15.43
15.67
15.10
14.02
12.83
11.88
11.38
11.30
11.54
12.00
12.64
13.46
14.39
15.27
15.91
16.12
15.85
15.11
13.93
12.38
10.51
8.44
6.36
4.48
2.91
1.65
0.54
-0.58
-1.85
-3.31
-4.96
-6.77
-8.69
-10.69
-12.70
-14.60
-16.33
-17.86
-19.28
-20.72
-22.36
-24.38
-26.96
-30.20
-33.94
-37.71
-40.63
-41.65
-39.87
-34.93
-27.22
-17.76
-7.89
1.11
8.40
13.63
16.91
18.57
19.00
18.53
17.41
15.90
14.22
12.59
11.21
10.19
9.56
9.36
9.64
10.50
12.05
14.31
17.14
20.24
23.21
25.67
27.36
28.20
28.27
27.76
26.92
25.91
24.87
23.79
22.65
21.39
20.02
18.55
17.01
15.33
13.34
10.90
7.97
4.64
1.12
-2.39
-5.76
-8.96
-11.99
-14.86
-17.57
-20.21
-22.97
-26.12
-29.84
-34.05
-38.32
-41.90
-43.98
-43.86
-41.25
-36.29
-29.52
-21.76
-13.90
-6.72
-0.74
3.75
6.74
8.39
8.94
8.68
7.89
6.88
6.00
5.51
5.61
6.38
7.72
9.42
11.23
12.90
14.29
15.35
16.12
16.65
16.94
16.87
16.29
15.09
13.31
11.19
9.08
7.33
6.12
5.39
4.92
4.43
3.73
2.76
1.59
0.36
-0.75
-1.63
-2.18
-2.43
-2.53
-2.73
-3.33
-4.55
-6.40
-8.77
-11.37
-13.95
-16.36
-18.56
-20.65
-22.83
-25.29
-28.12
-31.18
-34.04
-36.06
-36.52
-34.88
-30.99
-25.15
-18.04
-10.53
-3.48
2.47
6.97
9.94
11.56
12.09
11.81
10.93
9.62
8.06
6.49
5.26
4.69
5.02
6.25
8.19
10.51
12.85
14.92
16.50
17.43
17.64
17.12
16.01
14.54
12.95
11.42
10.00
8.62
7.19
5.63
3.94
2.14
0.30
-1.54
-3.33
-5.03
-6.56
-7.87
-8.99
-9.92
-10.75
-11.54
-12.41
-13.45
-14.82
-16.67
-19.09
-21.98
-25.01
-27.54
-28.80
-28.11
-25.10
-19.90
-13.14
-5.71
1.45
7.63
12.47
15.88
17.92
18.72
18.39
17.08
15.02
12.56
10.07
7.95
6.47
5.77
5.84
6.52
7.55
8.60
9.40
9.78
9.72
9.26
8.45
7.26
5.62
3.49
0.94
-1.82
-4.46
-6.68
-8.37
-9.62
-10.72
-12.00
-13.70
-15.85
-18.30
-20.77
-23.03
-24.94
-26.51
-27.92
-29.40
-31.23
-33.64
-36.72
-40.33
-44.04
-47.13
-48.70
-47.96
-44.39
-38.04
-29.49
-19.70
-9.86
-0.95
6.35
11.76
15.34
17.37
18.17
18.11
17.57
16.87
16.32
16.15
16.53
17.54
19.10
21.01
22.97
24.69
25.96
26.74
27.13
27.26
27.21
26.91
26.19
24.90
22.97
20.53
17.84
15.18
12.75
10.61
8.73
7.01
5.36
3.74
2.11
0.42
-1.35
-3.23
-5.18
-7.16
-9.10
-11.03
-13.10
-15.55
-18.59
-22.24
-26.19
-29.79
-32.21
-32.62
-30.46
-25.61
-18.43
-9.70
-0.45
8.22
15.41
20.54
23.44
24.33
23.70
22.16
20.31
18.58
17.23
16.33
15.87
15.77
16.01
16.56
17.40
18.42
19.46
20.25
20.57
20.31
19.47
18.18
16.60
14.84
12.97
11.03
9.06
7.12
5.25
3.43
1.62
-0.19
-1.95
-3.54
-4.85
-5.91
-6.85
-7.90
-9.21
-10.75
-12.34
-13.80
-15.03
-16.12
-17.28
-18.68
-20.44
-22.56
-25.02
-27.77
-30.67
-33.30
-34.95
-34.76
-31.97
-26.32
-18.21
-8.61
1.26
10.27
17.69
23.18
26.71
28.42
28.54
27.39
25.42
23.15
21.10
19.68
19.10
19.39
20.36
21.77
23.34
24.87
26.22
27.30
28.07
28.47
28.42
27.87
26.77
25.11
23.01
20.65
18.25
16.01
14.05
12.33
10.69
8.92
6.85
4.49
1.98
-0.40
-2.45
-4.11
-5.52
-6.94
-8.57
-10.51
-12.68
-14.91
-17.02
-18.90
-20.55
-22.11
-23.79
-25.79
-28.23
-31.04
-33.95
-36.43
-37.80
-37.37
-34.62
-29.36
-21.90
-12.98
-3.67
4.90
11.83
16.67
19.42
20.40
20.12
19.03
17.43
15.58
13.67
11.97
10.75
10.27
10.66
11.85
13.57
15.48
17.21
18.51
19.26
19.48
19.27
18.69
17.84
16.72
15.39
13.87
12.22
10.52
8.84
7.21
5.66
4.20
2.80
1.42
0.08
-1.21
-2.39
-3.41
-4.33
-5.28
-6.44
-7.92
-9.69
-11.56
-13.33
-14.87
-16.29
-17.87
-19.96
-22.77
-26.22
-29.86
-32.98
-34.72
-34.35
-31.41
-25.96
-18.49
-9.92
-1.34
6.26
12.16
16.06
18.04
18.44
17.68
16.12
14.12
11.98
10.04
8.63
8.04
8.37
9.46
10.98
12.47
13.56
14.12
14.19
13.95
13.58
13.11
12.47
11.51
10.15
8.39
6.36
4.23
2.13
0.16
-1.64
-3.25
-4.66
-5.86
-6.90
-7.82
-8.73
-9.70
-10.76
-11.89
-13.01
-14.02
-14.88
-15.66
-16.56
-17.89
-19.90
-22.68
-25.99
-29.23
-31.59
-32.30
-30.84
-27.09
-21.41
-14.47
-7.10
-0.08
5.96
10.64
13.79
15.40
15.58
14.55
12.60
10.15
7.67
5.59
4.23
3.70
3.96
4.81
6.06
7.50
8.95
10.21
11.11
11.51
11.32
10.54
9.25
7.53
5.53
3.39
1.25
-0.82
-2.84
-4.93
-7.19
-9.62
-12.06
-14.24
-15.88
-16.92
-17.49
-17.88
-18.46
-19.58
-21.47
-24.24
-27.76
-31.60
-35.02
-37.05
-36.76
-33.62
-27.69
-19.63
-10.55
-1.62
6.15
12.16
16.17
18.29
18.80
18.15
16.81
15.21
13.71
12.52
11.72
11.34
11.39
11.84
12.70
13.89
15.29
16.76
18.13
19.25
19.95
20.09
19.52
18.17
16.05
13.30
10.16
6.93
3.90
1.29
-0.82
-2.51
-4.04
-5.69
-7.64
-9.89
-12.24
-14.38
-16.16
-17.66
-19.26
-21.39
-24.36
-28.12
-32.20
-35.82
-38.06
-38.09
-35.45
-30.16
-22.75
-14.14
-5.38
2.60
9.21
14.17
17.50
19.33
19.90
19.46
18.35
16.97
15.69
14.85
14.63
15.09
16.16
17.65
19.34
20.93
22.15
22.84
23.00
22.71
22.10
21.25
20.08
18.50
16.39
13.81
10.99
8.29
6.04
4.37
3.15
2.06
0.73
-1.08
-3.34
-5.82
-8.18
-10.17
-11.73
-12.97
-14.12
-15.45
-17.19
-19.55
-22.69
-26.62
-31.10
-35.52
-39.00
-40.52
-39.28
-34.96
-27.89
-18.96
-9.42
-0.48
6.96
12.55
16.34
18.68
19.91
20.25
19.85
18.86
17.56
16.33
15.59
15.58
16.36
17.71
19.33
20.95
22.41
23.63
24.53
25.09
25.23
24.90
24.03
22.55
20.44
17.78
14.77
11.75
9.07
6.97
5.47
4.43
3.58
2.69
1.61
0.26
-1.37
-3.25
-5.32
-7.47
-9.57
-11.51
-13.28
-14.98
-16.76
-18.81
-21.26
-24.19
-27.59
-31.32
-35.04
-38.08
-39.59
-38.71
-34.91
-28.27
-19.50
-9.79
-0.45
7.46
13.41
17.32
19.48
20.33
20.20
19.34
17.93
16.23
14.58
13.41
13.04
13.62
15.02
16.89
18.82
20.50
21.79
22.69
23.25
23.42
23.12
22.23
20.74
18.73
16.39
13.93
11.49
9.17
7.02
5.08
3.38
1.94
0.76
-0.21
-1.07
-1.97
-3.04
-4.41
-6.14
-8.22
-10.54
-12.91
-15.14
-17.14
-18.93
-20.65
-22.59
-24.99
-27.96
-31.33
-34.57
-36.85
-37.27
-35.11
-30.16
-22.81
-13.95
-4.73
3.77
10.79
15.95
19.18
20.61
20.49
19.12
16.92
14.38
12.01
10.29
9.55
9.89
11.21
13.18
15.38
17.38
18.87
19.70
19.89
19.57
18.89
17.94
16.74
15.28
13.55
11.63
9.61
7.61
5.72
3.96
2.35
0.89
-0.38
-1.51
-2.58
-3.71
-5.05
-6.64
-8.40
-10.18
-11.82
-13.22
-14.48
-15.77
-17.36
-19.45
-22.16
-25.43
-28.95
-32.16
-34.31
-34.52
-32.13
-26.90
-19.19
-9.93
-0.37
8.28
15.11
19.72
22.13
22.67
21.84
20.09
17.85
15.52
13.41
11.79
10.83
10.59
11.06
12.11
13.53
15.08
16.53
17.68
18.43
18.75
18.63
18.02
16.88
15.16
12.92
10.32
7.58
4.94
2.53
0.39
-1.51
-3.23
-4.83
-6.37
-7.94
-9.60
-11.33
-13.05
-14.58
-15.83
-16.81
-17.70
-18.74
-20.21
-22.25
-24.86
-27.84
-30.75
-33.00
-33.87
-32.72
-29.18
-23.38
-15.95
-7.81
0.03
6.83
12.19
15.99
18.29
19.16
18.70
17.09
14.66
11.89
9.27
7.20
5.92
5.43
5.66
6.48
7.75
9.32
10.93
12.32
13.20
13.39
12.83
11.58
9.76
7.52
5.01
2.38
-0.17
-2.52
-4.63
-6.57
-8.48
-10.46
-12.54
-14.60
-16.45
-17.95
-19.10
-20.11
-21.35
-23.17
-25.78
-29.01
-32.35
-34.97
-36.02
-34.82
-31.16
-25.32
-18.04
-10.30
-3.03
3.07
7.63
10.57
12.03
12.20
11.29
9.54
7.24
4.76
2.56
1.12
0.71
1.36
2.78
4.52
6.09
7.21
7.81
8.04
8.04
7.86
7.35
6.27
4.41
1.75
-1.54
-5.12
-8.68
-12.03
-15.12
-18.01
-20.75
-23.36
-25.88
-28.39
-31.06
-34.02
-37.21
-40.22
-42.29
-42.53
-40.21
-35.11
-27.70
-18.99
-10.25
-2.58
3.34
7.36
9.70
10.76
10.92
10.51
9.85
9.34
9.38
10.35
12.47
15.68
19.70
24.07
28.28
31.92
34.71
36.52
37.36
37.35
36.64
35.30
33.39
30.81
27.49
23.38
18.59
13.34
8.02
2.98
-1.52
-5.40
-8.81
-12.03
-15.44
-19.37
-23.99
-29.24
-34.69
-39.55
-42.78
-43.40
-40.74
-34.74
-26.05
-15.86
-5.54
3.74
11.22
16.69
20.29
22.36
23.25
23.28
22.74
21.92
21.14
20.68
20.72
21.27
22.21
23.30
24.37
25.30
26.03
26.55
26.76
26.52
25.61
23.86
21.29
18.11
14.62
11.16
7.94
5.00
2.24
-0.46
-3.21
-5.97
-8.67
-11.20
-13.50
-15.58
-17.57
-19.71
-22.30
-25.68
-30.02
-35.21
-40.65
-45.35
-48.02
-47.55
-43.38
-35.68
-25.44
-14.09
-3.12
6.35
13.75
19.04
22.57
24.78
26.05
26.59
26.53
25.98
25.15
24.38
24.01
24.28
25.17
26.46
27.76
28.73
29.19
29.16
28.80
28.21
27.43
26.34
24.79
22.70
20.08
17.11
14.04
11.17
8.72
6.76
5.20
3.80
2.26
0.35
-2.03
-4.76
-7.61
-10.37
-12.90
-15.24
-17.53
-19.94
-22.67
-25.82
-29.51
-33.74
-38.32
-42.77
-46.28
-47.79
-46.32
-41.34
-33.03
-22.31
-10.60
0.57
10.03
17.15
21.90
24.62
25.81
25.91
25.23
24.06
22.73
21.58
20.96
21.07
21.96
23.43
25.16
26.77
27.97
28.56
28.54
27.98
27.03
25.84
24.42
22.74
20.66
18.10
15.11
11.92
8.87
6.28
4.29
2.79
1.47
0.01
-1.83
-4.08
-6.60
-9.16
-11.55
-13.67
-15.55
-17.35
-19.28
-21.50
-24.15
-27.27
-30.89
-34.97
-39.34
-43.59
-47.01
-48.65
-47.60
-43.30
-35.87
-26.15
-15.43
-5.13
3.65
10.30
14.73
17.19
18.05
17.71
16.54
14.92
13.22
11.81
10.99
10.96
11.80
13.42
15.61
18.01
20.25
21.97
22.94
23.12
22.63
21.69
20.50
19.16
17.61
15.73
13.41
10.68
7.75
4.90
2.37
0.29
-1.39
-2.79
-4.09
-5.40
-6.78
-8.25
-9.81
-11.47
-13.23
-15.11
-17.12
-19.29
-21.71
-24.48
-27.68
-31.25
-34.88
-37.93
-39.50
-38.68
-34.87
-28.11
-19.13
-9.19
0.36
8.50
14.73
19.09
21.84
23.21
23.28
22.08
19.79
16.87
13.99
11.86
10.96
11.40
12.94
15.13
17.45
19.51
21.05
21.98
22.27
21.99
21.17
19.82
17.95
15.59
12.82
9.80
6.80
4.06
1.74
-0.14
-1.74
-3.30
-5.01
-6.95
-9.01
-11.01
-12.74
-14.13
-15.23
-16.22
-17.31
-18.74
-20.68
-23.23
-26.41
-30.03
-33.62
-36.46
-37.64
-36.34
-32.13
-25.16
-16.22
-6.48
2.78
10.60
16.45
20.21
22.08
22.30
21.10
18.73
15.53
12.01
8.82
6.57
5.65
6.09
7.60
9.64
11.74
13.55
14.94
15.93
16.55
16.80
16.52
15.58
13.86
11.40
8.42
5.25
2.23
-0.40
-2.56
-4.35
-5.96
-7.57
-9.23
-10.89
-12.41
-13.74
-14.91
-16.12
-17.57
-19.46
-21.86
-24.71
-27.87
-31.03
-33.74
-35.38
-35.28
-32.87
-27.93
-20.78
-12.21
-3.29
4.89
11.56
16.32
19.14
20.26
19.96
18.51
16.20
13.34
10.35
7.73
5.94
5.31
5.87
7.38
9.42
11.51
13.33
14.72
15.65
16.08
15.95
15.16
13.66
11.55
9.09
6.60
4.31
2.30
0.42
-1.56
-3.85
-6.48
-9.27
-11.89
-14.02
-15.50
-16.44
-17.15
-18.06
-19.49
-21.62
-24.35
-27.33
-30.05
-31.82
-31.99
-30.00
-25.63
-19.10
-11.08
-2.58
5.38
11.98
16.78
19.72
21.00
20.84
19.46
17.07
13.95
10.52
7.35
5.00
3.87
4.07
5.39
7.42
9.67
11.72
13.28
14.19
14.40
13.96
12.98
11.60
9.96
8.09
5.96
3.51
0.71
-2.36
-5.50
-8.46
-11.07
-13.23
-15.01
-16.55
-18.02
-19.59
-21.43
-23.67
-26.26
-28.95
-31.15
-32.08
-30.97
-27.36
-21.32
-13.48
-4.85
3.50
10.67
16.15
19.77
21.58
21.74
20.46
18.02
14.79
11.31
8.14
5.84
4.72
4.82
5.94
7.66
9.52
11.11
12.15
12.49
12.15
11.28
10.07
8.67
7.11
5.28
3.02
0.24
-2.96
-6.29
-9.42
-12.13
-14.38
-16.37
-18.40
-20.73
-23.50
-26.66
-29.97
-33.01
-35.20
-35.88
-34.51
-30.83
-25.00
-17.55
-9.27
-1.00
6.56
12.90
17.70
20.77
22.02
21.52
19.54
16.52
13.10
9.93
7.59
6.44
6.53
7.67
9.45
11.36
13.00
14.07
14.51
14.35
13.71
12.69
11.30
9.48
7.15
4.31
1.11
-2.19
-5.29
-7.97
-10.24
-12.28
-14.39
-16.81
-19.67
-22.97
-26.57
-30.23
-33.53
-35.81
-36.33
-34.37
-29.63
-22.36
-13.44
-4.05
4.64
11.85
17.30
20.98
23.04
23.53
22.50
20.13
16.83
13.27
10.24
8.36
7.94
8.92
10.91
13.33
15.64
17.41
18.40
18.57
18.03
16.91
15.33
13.36
10.98
8.19
5.06
1.69
-1.78
-5.22
-8.55
-11.71
-14.68
-17.42
-19.92
-22.27
-24.66
-27.38
-30.61
-34.24
-37.72
-40.17
-40.53
-38.01
-32.36
-24.02
-14.04
-3.68
5.85
13.74
19.62
23.46
25.45
25.82
24.85
22.87
20.32
17.77
15.81
14.91
15.29
16.82
19.08
21.51
23.59
24.95
25.46
25.12
24.03
22.30
20.05
17.40
14.49
11.46
8.39
5.34
2.30
-0.68
-3.50
-6.06
-8.31
-10.27
-12.09
-13.96
-16.09
-18.66
-21.77
-25.47
-29.63
-33.90
-37.61
-39.81
-39.56
-36.26
-29.85
-21.01
-10.89
-0.82
8.09
15.18
20.23
23.35
24.80
24.88
23.91
22.25
20.37
18.73
17.74
17.63
18.42
19.89
21.71
23.52
25.05
26.11
26.58
26.39
25.49
23.82
21.47
18.58
15.44
12.36
9.60
7.26
5.21
3.19
0.91
-1.79
-4.87
-8.07
-11.07
-13.56
-15.46
-16.89
-18.21
-19.87
-22.32
-25.79
-30.18
-34.91
-38.99
-41.20
-40.43
-36.10
-28.37
-18.18
-6.97
3.75
12.82
19.61
24.10
26.64
27.71
27.71
26.97
25.71
24.24
22.90
22.06
21.98
22.68
23.92
25.26
26.30
26.75
26.66
26.20
25.58
24.83
23.79
22.21
19.92
17.01
13.77
10.64
7.95
5.77
3.99
2.31
0.50
-1.52
-3.67
-5.83
-7.85
-9.73
-11.51
-13.31
-15.31
-17.66
-20.50
-23.94
-27.94
-32.19
-36.14
-38.97
-39.81
-37.98
-33.27
-26.07
-17.28
-8.08
0.41
7.42
12.63
16.10
18.12
18.99
18.98
18.31
17.19
15.84
14.46
13.31
12.59
12.48
13.04
14.25
15.89
17.62
19.04
19.83
19.81
18.94
17.32
15.04
12.26
9.10
5.75
2.39
-0.79
-3.63
-6.08
-8.17
-9.99
-11.71
-13.54
-15.66
-18.21
-21.20
-24.56
-28.09
-31.55
-34.58
-36.71
-37.35
-35.94
-32.19
-26.23
-18.67
-10.52
-2.78
3.76
8.70
11.97
13.66
13.88
12.73
10.47
7.48
4.39
1.81
0.20
-0.33
0.01
0.83
1.71
2.39
2.77
2.85
2.60
1.97
0.80
-1.02
-3.55
-6.74
-10.44
-14.41
-18.40
-22.10
-25.24
-27.62
-29.17
-30.05
-30.55
-31.06
-31.88
-33.03
-34.21
-34.78
-33.97
-31.12
-25.97
-18.78
-10.27
-1.41
6.90
14.00
19.64
23.79
26.60
28.18
28.63
28.13
26.96
25.56
24.38
23.71
23.55
23.67
23.72
23.47
22.85
22.00
21.11
20.28
19.44
18.43
16.97
14.85
11.94
8.28
4.09
-0.26
-4.34
-7.78
-10.47
-12.56
-14.50
-16.79
-19.89
-23.97
-28.85
-33.93
-38.25
-40.74
-40.43
-36.79
-29.98
-20.78
-10.46
-0.37
8.40
15.26
20.14
23.36
25.42
26.80
27.82
28.61
29.21
29.61
29.84
29.99
30.14
30.26
30.23
29.87
29.10
27.99
26.78
25.71
24.90
24.21
23.33
21.92
19.75
16.80
13.28
9.55
6.01
2.94
0.46
-1.56
-3.36
-5.29
-7.57
-10.26
-13.19
-16.10
-18.73
-20.99
-22.94
-24.86
-27.05
-29.79
-33.25
-37.32
-41.57
-45.18
-47.12
-46.44
-42.56
-35.57
-26.23
-15.78
-5.47
3.72
11.30
17.14
21.40
24.26
25.91
26.54
26.42
25.86
25.21
24.77
24.71
25.03
25.61
26.26
26.81
27.16
27.31
27.35
27.34
27.26
26.97
26.23
24.85
22.81
20.26
17.54
14.99
12.79
10.92
9.20
7.38
5.33
3.11
0.90
-1.06
-2.63
-3.88
-5.04
-6.40
-8.22
-10.60
-13.43
-16.47
-19.44
-22.09
-24.36
-26.33
-28.25
-30.47
-33.28
-36.79
-40.78
-44.65
-47.49
-48.29
-46.21
-40.93
-32.74
-22.58
-11.76
-1.64
6.75
12.93
16.97
19.24
20.23
20.30
19.67
18.49
16.97
15.42
14.26
13.81
14.19
15.25
16.60
17.85
18.68
19.00
18.90
18.52
18.00
17.32
16.41
15.17
13.54
11.57
9.36
7.05
4.72
2.43
0.20
-1.96
-4.02
-5.92
-7.65
-9.27
-10.89
-12.65
-14.63
-16.79
-19.01
-21.10
-22.98
-24.71
-26.53
-28.76
-31.65
-35.21
-39.14
-42.81
-45.37
-45.95
-43.90
-39.00
-31.53
-22.27
-12.28
-2.67
5.67
12.20
16.77
19.54
20.86
21.11
20.64
19.73
18.58
17.40
16.42
15.88
16.00
16.86
18.33
20.09
21.71
22.84
23.28
23.06
22.33
21.22
19.78
18.00
15.86
13.44
10.91
8.49
6.30
4.31
2.39
0.38
-1.78
-3.99
-6.06
-7.80
-9.15
-10.24
-11.39
-12.93
-15.07
-17.80
-20.88
-23.98
-26.81
-29.28
-31.49
-33.63
-35.97
-38.67
-41.75
-44.95
-47.73
-49.25
-48.61
-45.11
-38.60
-29.54
-18.99
-8.26
1.48
9.42
15.33
19.31
21.76
23.10
23.66
23.69
23.36
22.84
22.30
21.98
22.05
22.61
23.56
24.74
25.88
26.84
27.53
27.97
28.16
28.05
27.53
26.51
25.00
23.09
20.94
18.69
16.37
14.00
11.59
9.26
7.15
5.40
4.05
2.97
1.96
0.81
-0.60
-2.27
-4.09
-5.98
-7.89
-9.88
-12.04
-14.44
-17.07
-19.88
-22.71
-25.43
-27.93
-30.17
-32.21
-34.19
-36.32
-38.84
-41.91
-45.50
-49.28
-52.55
-54.31
-53.56
-49.59
-42.33
-32.38
-20.90
-9.28
1.29
10.02
16.58
21.04
23.62
24.71
24.69
24.01
23.11
22.38
22.06
22.25
22.90
23.87
24.98
26.14
27.30
28.48
29.67
30.80
31.69
32.10
31.85
30.84
29.16
27.00
24.65
22.31
20.13
18.13
16.29
14.57
12.94
11.36
9.83
8.32
6.82
5.30
3.74
2.10
0.41
-1.24
-2.80
-4.22
-5.59
-7.12
-9.01
-11.42
-14.31
-17.46
-20.57
-23.33
-25.59
-27.41
-28.99
-30.66
-32.70
-35.35
-38.68
-42.54
-46.53
-49.93
-51.88
-51.51
-48.23
-41.92
-33.01
-22.46
-11.44
-1.15
7.53
14.12
18.59
21.18
22.27
22.23
21.41
20.11
18.66
17.35
16.45
16.05
16.15
16.63
17.32
18.08
18.85
19.57
20.21
20.66
20.81
20.54
19.76
18.42
16.48
13.91
10.73
7.06
3.13
-0.74
-4.23
-7.12
-9.40
-11.28
-13.02
-14.88
-16.97
-19.15
-21.10
-22.37
-22.48
-21.07
-17.98
-13.43
-7.95
-2.36
2.56
6.27
8.60
9.79
10.20
10.12
9.61
8.47
6.44
3.30
-0.97
-6.16
-11.81
-17.26
-21.68
-24.18
-24.06
-20.99
-15.21
-7.50
0.99
9.08
15.82
20.72
23.70
25.02
25.06
24.20
22.74
20.89
18.82
16.75
14.92
13.66
13.20
13.70
15.10
17.22
19.74
22.26
24.40
25.87
26.44
26.06
24.81
22.89
20.57
18.09
15.58
13.07
10.53
7.96
5.37
2.88
0.58
-1.48
-3.34
-5.11
-6.94
-8.92
-11.07
-13.35
-15.66
-17.85
-19.86
-21.65
-23.28
-24.90
-26.69
-28.85
-31.55
-34.74
-38.12
-41.12
-42.90
-42.63
-39.74
-34.12
-26.26
-17.08
-7.73
0.79
7.75
12.86
16.15
17.80
18.07
17.23
15.59
13.48
11.28
9.36
8.01
7.40
7.55
8.37
9.66
11.21
12.80
14.23
15.38
16.14
16.45
16.24
15.50
14.27
12.65
10.78
8.81
6.83
4.88
2.87
0.69
-1.77
-4.53
-7.51
-10.50
-13.25
-15.55
-17.37
-18.87
-20.46
-22.68
-25.95
-30.40
-35.64
-40.78
-44.61
-45.93
-43.94
-38.52
-30.30
-20.43
-10.21
-0.80
7.07
13.08
17.24
19.71
20.73
20.55
19.47
17.82
15.90
14.02
12.40
11.22
10.61
10.62
11.24
12.33
13.66
15.05
16.30
17.28
17.85
17.80
16.96
15.21
12.63
9.46
6.09
2.81
-0.24
-3.11
-5.94
-8.84
-11.84
-14.85
-17.75
-20.44
-22.90
-25.18
-27.45
-29.94
-32.92
-36.51
-40.54
-44.36
-46.97
-47.22
-44.29
-37.92
-28.69
-17.70
-6.32
4.23
13.15
20.12
25.16
28.42
30.15
30.58
30.05
28.94
27.66
26.57
25.88
25.64
25.81
26.36
27.25
28.45
29.82
31.15
32.09
32.37
31.80
30.40
28.31
25.73
22.84
19.81
16.80
13.97
11.41
9.10
6.93
4.71
2.26
-0.48
-3.47
-6.60
-9.75
-12.77
-15.52
-17.84
-19.66
-21.05
-22.33
-23.94
-26.36
-29.91
-34.55
-39.83
-44.92
-48.72
-50.11
-48.24
-42.77
-34.03
-23.02
-11.08
0.39
10.34
18.21
23.92
27.67
29.80
30.64
30.47
29.53
28.10
26.44
24.84
23.53
22.71
22.46
22.80
23.67
24.94
26.40
27.82
28.93
29.50
29.37
28.50
26.96
24.85
22.29
19.33
16.03
12.52
9.01
5.82
3.19
1.27
-0.09
-1.17
-2.35
-3.90
-5.93
-8.35
-10.95
-13.45
-15.65
-17.46
-18.95
-20.35
-22.03
-24.33
-27.49
-31.50
-36.04
-40.47
-43.90
-45.35
-44.01
-39.46
-31.85
-21.94
-10.98
-0.29
9.01
16.26
21.32
24.35
25.65
25.52
24.22
22.08
19.47
16.92
14.89
13.70
13.44
13.97
15.02
16.32
17.67
19.05
20.47
21.88
23.10
23.78
23.52
22.08
19.45
15.93
11.99
8.14
4.75
2.01
-0.13
-1.84
-3.42
-5.16
-7.27
-9.80
-12.59
-15.38
-17.89
-19.97
-21.68
-23.20
-24.75
-26.58
-28.86
-31.73
-35.18
-38.89
-42.22
-44.17
-43.75
-40.27
-33.71
-24.70
-14.39
-4.05
5.29
12.98
18.76
22.59
24.58
24.85
23.68
21.45
18.72
16.12
14.17
13.18
13.13
13.80
14.80
15.81
16.68
17.42
18.11
18.78
19.33
19.54
19.15
17.93
15.79
12.81
9.29
5.61
2.17
-0.80
-3.33
-5.63
-8.05
-10.75
-13.72
-16.70
-19.36
-21.50
-23.18
-24.64
-26.25
-28.34
-31.15
-34.71
-38.77
-42.74
-45.71
-46.61
-44.52
-39.04
-30.49
-19.89
-8.66
1.86
10.70
17.45
22.16
25.14
26.73
27.16
26.58
25.17
23.18
21.04
19.26
18.31
18.46
19.67
21.60
23.80
25.80
27.32
28.21
28.44
28.01
26.91
25.18
22.91
20.23
17.28
14.18
11.03
7.94
5.05
2.51
0.39
-1.42
-3.15
-5.13
-7.55
-10.43
-13.61
-16.79
-19.68
-22.15
-24.22
-26.11
-28.12
-30.58
-33.78
-37.82
-42.54
-47.43
-51.62
-54.00
-53.45
-49.23
-41.25
-30.23
-17.52
-4.83
6.37
15.14
21.24
25.03
27.13
28.13
28.47
28.39
28.06
27.66
27.37
27.37
27.71
28.33
29.04
29.66
30.06
30.23
30.26
30.28
30.38
30.48
30.39
29.80
28.45
26.23
23.27
19.91
16.59
13.65
11.26
9.34
7.66
5.93
4.00
1.84
-0.39
-2.51
-4.43
-6.17
-7.92
-9.90
-12.25
-14.95
-17.86
-20.74
-23.39
-25.79
-28.03
-30.34
-32.97
-36.13
-39.91
-44.19
-48.53
-52.14
-54.01
-53.12
-48.77
-40.94
-30.36
-18.34
-6.45
4.01
12.28
18.21
22.13
24.50
25.73
26.09
25.75
24.89
23.80
22.80
22.22
22.22
22.78
23.72
24.83
25.94
26.95
27.80
28.45
28.78
28.66
27.99
26.75
24.99
22.88
20.57
18.22
15.91
13.69
11.54
9.46
7.39
5.29
3.17
1.08
-0.87
-2.60
-4.07
-5.38
-6.74
-8.36
-10.39
-12.81
-15.48
-18.20
-20.79
-23.13
-25.20
-27.05
-28.81
-30.71
-33.04
-36.06
-39.83
-44.04
-47.91
-50.38
-50.38
-47.20
-40.72
-31.51
-20.59
-9.20
1.50
10.61
17.61
22.36
25.00
25.91
25.53
24.32
22.67
20.86
19.19
17.92
17.35
17.63
18.73
20.37
22.16
23.73
24.89
25.64
26.06
26.20
25.97
25.24
23.90
21.98
19.65
17.19
14.86
12.77
10.95
9.25
7.52
5.60
3.45
1.18
-0.97
-2.78
-4.14
-5.15
-6.15
-7.50
-9.45
-12.00
-14.93
-17.89
-20.56
-22.79
-24.57
-26.06
-27.51
-29.22
-31.46
-34.35
-37.73
-41.06
-43.51
-44.09
-42.04
-37.08
-29.50
-20.18
-10.26
-0.83
7.28
13.57
17.91
20.42
21.28
20.81
19.35
17.35
15.27
13.57
12.52
12.27
12.74
13.74
15.02
16.37
17.64
18.74
19.66
20.38
20.87
21.00
20.64
19.60
17.79
15.24
12.14
8.82
5.60
2.75
0.32
-1.74
-3.58
-5.38
-7.22
-9.15
-11.14
-13.13
-15.07
-16.88
-18.52
-19.99
-21.37
-22.88
-24.77
-27.31
-30.58
-34.32
-37.84
-40.20
-40.39
-37.74
-32.13
-24.08
-14.60
-4.88
4.03
11.41
16.94
20.55
22.36
22.54
21.33
19.08
16.21
13.27
10.80
9.26
8.94
9.82
11.59
13.74
15.75
17.21
18.03
18.28
18.17
17.83
17.23
16.26
14.77
12.75
10.33
7.72
5.15
2.73
0.45
-1.77
-4.06
-6.58
-9.38
-12.40
-15.39
-18.07
-20.19
-21.71
-22.87
-24.10
-25.88
-28.54
-32.15
-36.53
-41.25
-45.61
-48.73
-49.67
-47.68
-42.42
-34.25
-24.09
-13.27
-3.07
5.60
12.35
17.21
20.49
22.51
23.48
23.55
22.89
21.74
20.45
19.41
18.89
18.98
19.57
20.44
21.45
22.52
23.69
24.91
26.03
26.74
26.69
25.71
23.85
21.39
18.70
16.09
13.73
11.65
9.76
7.96
6.14
4.24
2.23
0.15
-1.97
-4.07
-6.16
-8.29
-10.49
-12.70
-14.84
-16.77
-18.49
-20.13
-21.95
-24.27
-27.35
-31.27
-35.83
-40.61
-44.85
-47.59
-47.88
-44.92
-38.49
-29.02
-17.63
-5.80
4.99
13.70
19.92
23.79
25.86
26.67
26.62
25.89
24.58
22.85
21.03
19.58
18.89
19.16
20.27
21.90
23.65
25.18
26.35
27.08
27.39
27.21
26.45
25.04
22.96
20.32
17.26
14.00
10.75
7.75
5.14
3.01
1.28
-0.26
-1.90
-3.88
-6.24
-8.79
-11.24
-13.28
-14.83
-16.03
-17.17
-18.56
-20.42
-22.84
-25.84
-29.41
-33.44
-37.61
-41.26
-43.44
-43.14
-39.68
-33.03
-23.92
-13.60
-3.46
5.42
12.45
17.53
20.81
22.46
22.64
21.50
19.35
16.70
14.19
12.42
11.75
12.22
13.55
15.33
17.16
18.75
20.02
20.97
21.64
22.00
21.89
21.09
19.41
16.81
13.45
9.67
5.91
2.54
-0.26
-2.52
-4.46
-6.39
-8.56
-11.06
-13.77
-16.43
-18.71
-20.43
-21.64
-22.64
-23.95
-26.08
-29.43
-34.00
-39.34
-44.56
-48.40
-49.61
-47.23
-41.00
-31.51
-20.04
-8.19
2.58
11.34
17.83
22.26
25.05
26.57
27.01
26.52
25.29
23.63
21.93
20.59
19.83
19.76
20.37
21.56
23.17
24.97
26.67
28.01
28.79
28.88
28.29
27.04
25.18
22.74
19.84
16.69
13.58
10.78
8.45
6.54
4.90
3.34
1.70
-0.06
-2.00
-4.18
-6.68
-9.49
-12.52
-15.54
-18.28
-20.58
-22.43
-24.02
-25.71
-27.88
-30.89
-34.90
-39.73
-44.75
-48.90
-50.92
-49.74
-44.81
-36.40
-25.51
-13.62
-2.18
7.63
15.17
20.33
23.34
24.68
24.86
24.33
23.44
22.43
21.47
20.72
20.36
20.48
21.09
22.08
23.24
24.38
25.39
26.23
26.90
27.37
27.52
27.18
26.19
24.46
22.07
19.18
16.04
12.92
10.03
7.51
5.37
3.56
1.97
0.49
-0.99
-2.62
-4.50
-6.72
-9.24
-11.94
-14.59
-16.97
-18.92
-20.48
-21.86
-23.44
-25.61
-28.70
-32.80
-37.59
-42.33
-45.93
-47.20
-45.23
-39.72
-31.10
-20.44
-9.10
1.59
10.58
17.27
21.46
23.34
23.31
21.92
19.72
17.21
14.79
12.78
11.44
10.95
11.36
12.55
14.20
15.96
17.56
18.88
19.98
20.95
21.77
22.19
21.88
20.55
18.14
14.85
11.12
7.40
4.09
1.39
-0.70
-2.30
-3.65
-5.01
-6.60
-8.50
-10.73
-13.16
-15.62
-17.93
-20.02
-21.94
-23.87
-26.02
-28.63
-31.83
-35.61
-39.69
-43.56
-46.41
-47.29
-45.34
-40.06
-31.58
-20.75
-8.93
2.35
11.85
18.89
23.41
25.82
26.70
26.56
25.76
24.53
23.08
21.67
20.61
20.18
20.47
21.41
22.74
24.13
25.29
26.04
26.34
26.22
25.73
24.89
23.66
22.04
20.08
17.91
15.65
13.39
11.11
8.76
6.28
3.74
1.29
-0.93
-2.85
-4.53
-6.17
-7.96
-10.01
-12.31
-14.72
-17.10
-19.34
-21.41
-23.41
-25.50
-27.89
-30.78
-34.30
-38.39
-42.74
-46.75
-49.58
-50.29
-48.10
-42.63
-34.10
-23.36
-11.71
-0.52
9.06
16.42
21.48
24.49
25.88
26.06
25.36
24.11
22.65
21.41
20.74
20.85
21.72
23.16
24.82
26.35
27.47
28.06
28.16
27.89
27.44
26.86
26.14
25.16
23.81
22.02
19.80
17.26
14.61
12.07
9.84
8.06
6.71
5.63
4.57
3.26
1.61
-0.26
-2.15
-3.87
-5.43
-7.02
-8.90
-11.19
-13.82
-16.54
-19.06
-21.25
-23.14
-24.89
-26.65
-28.53
-30.59
-32.97
-35.86
-39.42
-43.61
-47.93
-51.43
-52.91
-51.26
-45.95
-37.25
-26.18
-14.27
-2.99
6.58
13.95
19.17
22.56
24.48
25.21
24.96
24.00
22.66
21.29
20.17
19.48
19.26
19.47
20.12
21.21
22.72
24.51
26.33
27.82
28.67
28.64
27.69
25.91
23.57
21.00
18.50
16.34
14.60
13.22
12.06
10.93
9.73
8.43
7.04
5.59
4.13
2.67
1.24
-0.14
-1.46
-2.73
-3.98
-5.23
-6.48
-7.79
-9.27
-11.09
-13.36
-16.09
-19.07
-22.01
-24.60
-26.69
-28.31
-29.71
-31.23
-33.21
-35.91
-39.40
-43.48
-47.60
-50.85
-52.14
-50.49
-45.37
-36.95
-26.08
-14.11
-2.51
7.47
15.10
20.18
22.97
23.97
23.73
22.76
21.42
20.02
18.81
18.01
17.73
17.96
18.59
19.48
20.50
21.61
22.85
24.23
25.69
27.09
28.17
28.66
28.31
27.00
24.79
21.96
18.91
16.10
13.88
12.35
11.38
10.65
9.84
8.76
7.34
5.63
3.72
1.70
-0.33
-2.24
-3.89
-5.21
-6.21
-7.06
-7.99
-9.20
-10.85
-12.92
-15.29
-17.77
-20.14
-22.23
-24.01
-25.56
-27.12
-29.00
-31.45
-34.53
-38.00
-41.30
-43.58
-43.93
-41.65
-36.49
-28.76
-19.31
-9.27
0.23
8.34
14.56
18.71
20.88
21.32
20.33
18.29
15.67
12.93
10.54
8.87
8.14
8.36
9.35
10.78
12.24
13.46
14.38
15.11
15.87
16.71
17.47
17.77
17.20
15.54
12.91
9.64
6.22
3.00
0.15
-2.38
-4.73
-7.07
-9.43
-11.77
-13.96
-15.89
-17.51
-18.92
-20.31
-21.94
-24.07
-26.84
-30.22
-34.01
-37.77
-40.86
-42.56
-42.18
-39.32
-34.05
-26.89
-18.71
-10.39
-2.69
4.00
9.50
13.77
16.76
18.43
18.74
17.81
15.91
13.46
10.94
8.83
7.49
7.14
7.84
9.43
11.61
13.99
16.15
17.74
18.48
18.23
16.97
14.79
11.95
8.77
5.56
2.53
-0.26
-2.90
-5.51
-8.22
-11.03
-13.89
-16.69
-19.33
-21.78
-24.13
-26.57
-29.34
-32.61
-36.32
-39.99
-42.77
-43.61
-41.61
-36.40
-28.29
-18.22
-7.48
2.67
11.36
18.15
23.04
26.24
28.07
28.78
28.62
27.82
26.62
25.31
24.16
23.43
23.25
23.66
24.54
25.70
26.89
27.86
28.42
28.46
27.94
26.90
25.42
23.57
21.40
18.92
16.15
13.17
10.12
7.17
4.44
1.95
-0.46
-2.98
-5.78
-8.87
-12.10
-15.21
-17.95
-20.20
-22.07
-23.80
-25.71
-28.16
-31.38
-35.48
-40.26
-45.16
-49.25
-51.36
-50.43
-45.83
-37.69
-26.90
-14.89
-3.18
7.03
15.09
20.92
24.83
27.18
28.32
28.49
27.97
27.09
26.27
25.87
26.09
26.90
28.08
29.36
30.51
31.49
32.32
33.05
33.64
33.97
33.79
32.92
31.25
28.84
25.95
22.95
20.17
17.82
15.89
14.16
12.36
10.25
7.82
5.21
2.66
0.37
-1.62
-3.43
-5.28
-7.32
-9.62
-12.11
-14.69
-17.25
-19.78
-22.32
-24.98
-27.82
-30.95
-34.45
-38.31
-42.45
-46.51
-49.82
-51.45
-50.47
-46.27
-38.82
-28.74
-17.20
-5.55
5.02
13.72
20.21
24.52
26.88
27.63
27.12
25.74
23.93
22.14
20.80
20.21
20.48
21.55
23.21
25.12
26.97
28.49
29.50
29.87
29.56
28.60
27.11
25.19
22.97
20.52
17.84
14.96
11.96
9.02
6.37
4.18
2.46
1.05
-0.28
-1.75
-3.44
-5.31
-7.29
-9.29
-11.28
-13.28
-15.29
-17.32
-19.39
-21.53
-23.84
-26.45
-29.51
-33.08
-37.02
-40.88
-43.86
-44.92
-43.15
-38.06
-29.92
-19.65
-8.66
1.68
10.39
17.01
21.56
24.24
25.33
25.04
23.61
21.37
18.78
16.33
14.47
13.50
13.54
14.50
16.19
18.28
20.44
22.34
23.76
24.50
24.49
23.70
22.22
20.16
17.73
15.10
12.42
9.79
7.27
4.86
2.58
0.45
-1.51
-3.32
-5.07
-6.88
-8.86
-11.05
-13.40
-15.82
-18.19
-20.46
-22.63
-24.77
-26.99
-29.46
-32.37
-35.94
-40.18
-44.84
-49.21
-52.25
-52.80
-49.94
-43.41
-33.72
-22.06
-9.95
1.21
10.47
17.45
22.22
25.09
26.44
26.59
25.86
24.56
23.04
21.66
20.70
20.37
20.71
21.62
22.89
24.32
25.70
26.92
27.90
28.60
28.90
28.72
27.91
26.46
24.40
21.94
19.34
16.82
14.55
12.56
10.80
9.17
7.54
5.83
3.99
2.04
0.09
-1.71
-3.27
-4.56
-5.68
-6.85
-8.25
-10.02
-12.19
-14.70
-17.43
-20.28
-23.14
-25.93
-28.58
-31.09
-33.55
-36.18
-39.23
-42.78
-46.57
-49.91
-51.73
-50.94
-46.83
-39.38
-29.31
-17.88
-6.50
3.66
11.88
17.92
21.84
23.87
24.26
23.34
21.56
19.41
17.45
16.13
15.71
16.23
17.52
19.27
21.18
22.95
24.40
25.46
26.13
26.47
26.49
26.14
25.33
23.94
21.98
19.54
16.86
14.19
11.77
9.71
8.02
6.62
5.39
4.19
2.94
1.59
0.12
-1.42
-3.00
-4.61
-6.29
-8.06
-9.98
-11.98
-13.99
-15.92
-17.71
-19.38
-20.98
-22.61
-24.39
-26.44
-28.95
-32.09
-35.91
-40.23
-44.48
-47.74
-48.91
-47.08
-41.86
-33.55
-23.16
-12.07
-1.64
7.12
13.77
18.40
21.36
23.03
23.62
23.20
21.85
19.78
17.47
15.44
14.19
13.94
14.62
15.96
17.67
19.56
21.50
23.36
24.94
25.94
26.03
25.07
23.13
20.51
17.64
14.92
12.55
10.55
8.78
7.03
5.18
3.22
1.25
-0.62
-2.33
-3.89
-5.39
-6.90
-8.44
-9.98
-11.48
-12.94
-14.37
-15.86
-17.47
-19.29
-21.39
-23.91
-26.95
-30.47
-34.20
-37.55
-39.69
-39.77
-37.21
-31.90
-24.33
-15.36
-6.06
2.60
9.88
15.38
18.95
20.65
20.69
19.37
17.08
14.24
11.28
8.61
6.53
5.30
5.01
5.63
6.96
8.72
10.59
12.34
13.80
14.87
15.45
15.42
14.62
13.00
10.62
7.77
4.82
2.16
-0.04
-1.80
-3.42
-5.23
-7.49
-10.24
-13.30
-16.30
-18.87
-20.74
-21.85
-22.40
-22.86
-23.77
-25.63
-28.71
-32.85
-37.44
-41.46
-43.71
-43.14
-39.14
-31.80
-21.89
-10.70
0.33
9.99
17.51
22.65
25.59
26.72
26.42
25.03
22.89
20.38
17.93
15.98
14.83
14.64
15.30
16.61
18.29
20.06
21.71
23.08
24.07
24.60
24.65
24.14
23.01
21.13
18.47
15.11
11.30
7.43
3.91
1.00
-1.27
-3.09
-4.81
-6.76
-9.11
-11.83
-14.73
-17.58
-20.19
-22.49
-24.55
-26.49
-28.51
-30.82
-33.65
-37.18
-41.32
-45.64
-49.25
-50.99
-49.79
-45.03
-36.86
-26.19
-14.42
-3.03
6.86
14.65
20.27
23.94
26.01
26.74
26.38
25.19
23.54
21.91
20.79
20.52
21.18
22.58
24.37
26.21
27.84
29.19
30.22
30.88
31.06
30.58
29.30
27.25
24.63
21.76
19.00
16.59
14.54
12.72
10.87
8.80
6.46
3.96
1.53
-0.68
-2.62
-4.41
-6.24
-8.29
-10.60
-13.12
-15.70
-18.20
-20.57
-22.79
-24.96
-27.23
-29.84
-33.01
-36.90
-41.40
-45.98
-49.73
-51.49
-50.20
-45.30
-36.94
-25.97
-13.74
-1.69
8.97
17.53
23.69
27.53
29.30
29.32
27.97
25.70
23.07
20.66
19.01
18.45
19.05
20.58
22.64
24.79
26.64
27.97
28.74
28.97
28.74
28.12
27.17
25.90
24.32
22.42
20.24
17.84
15.26
12.54
9.72
6.81
3.89
1.14
-1.25
-3.16
-4.61
-5.81
-7.09
-8.75
-10.93
-13.54
-16.34
-19.03
-21.44
-23.54
-25.48
-27.48
-29.85
-32.83
-36.49
-40.68
-44.78
-47.81
-48.58
-46.03
-39.73
-30.05
-18.17
-5.70
5.80
15.24
22.18
26.70
29.18
30.04
29.60
28.11
25.86
23.25
20.77
18.88
17.94
18.07
19.22
21.11
23.40
25.73
27.77
29.31
30.16
30.22
29.45
27.88
25.60
22.77
19.58
16.25
12.98
9.93
7.19
4.79
2.68
0.75
-1.09
-2.93
-4.80
-6.68
-8.54
-10.39
-12.23
-14.06
-15.86
-17.58
-19.24
-20.90
-22.71
-24.90
-27.69
-31.18
-35.30
-39.62
-43.41
-45.72
-45.59
-42.38
-36.05
-27.19
-16.92
-6.55
2.77
10.33
15.83
19.35
21.10
21.34
20.28
18.20
15.47
12.53
9.87
7.86
6.68
6.36
6.71
7.56
8.69
9.94
11.13
12.08
12.60
12.55
11.90
10.72
9.08
7.08
4.75
2.14
-0.70
-3.65
-6.58
-9.40
-12.07
-14.56
-16.83
-18.83
-20.50
-21.88
-23.18
-24.78
-27.05
-30.22
-34.10
-38.04
-41.01
-41.85
-39.66
-34.11
-25.61
-15.16
-4.10
6.22
14.84
21.23
25.33
27.39
27.79
26.97
25.30
23.12
20.75
18.48
16.57
15.23
14.56
14.57
15.15
16.12
17.28
18.35
19.08
19.25
18.71
17.43
15.50
13.09
10.39
7.56
4.64
1.62
-1.58
-4.93
-8.35
-11.65
-14.64
-17.19
-19.29
-21.11
-22.93
-25.09
-27.89
-31.51
-35.83
-40.44
-44.53
-47.12
-47.21
-44.07
-37.57
-28.18
-16.94
-5.21
5.74
14.93
21.85
26.44
28.98
29.91
29.70
28.73
27.34
25.77
24.26
23.00
22.17
21.86
22.05
22.66
23.56
24.61
25.66
26.57
27.11
27.04
26.13
24.28
21.58
18.31
14.85
11.50
8.39
5.45
2.49
-0.68
-4.08
-7.57
-10.93
-13.93
-16.47
-18.64
-20.67
-22.89
-25.62
-29.06
-33.17
-37.58
-41.52
-44.00
-43.97
-40.70
-34.07
-24.66
-13.61
-2.28
8.12
16.76
23.26
27.60
29.93
30.49
29.59
27.59
24.95
22.17
19.72
17.97
17.14
17.24
18.12
19.49
21.01
22.32
23.19
23.49
23.18
22.27
20.74
18.59
15.87
12.72
9.36
6.05
2.95
0.10
-2.56
-5.16
-7.80
-10.49
-13.18
-15.74
-18.05
-20.09
-22.01
-24.12
-26.77
-30.18
-34.09
-37.75
-39.98
-39.60
-35.86
-28.80
-19.28
-8.66
1.65
10.61
17.72
22.91
26.27
27.94
27.99
26.56
23.97
20.77
17.63
15.16
13.74
13.46
14.14
15.47
17.08
18.67
20.02
20.97
21.39
21.16
20.15
18.30
15.64
12.36
8.77
5.27
2.17
-0.41
-2.54
-4.49
-6.58
-9.02
-11.84
-14.87
-17.84
-20.49
-22.70
-24.55
-26.29
-28.27
-30.81
-34.14
-38.25
-42.84
-47.24
-50.53
-51.63
-49.63
-44.07
-35.15
-23.79
-11.41
0.46
10.55
18.13
23.07
25.70
26.56
26.23
25.17
23.72
22.13
20.60
19.33
18.48
18.16
18.39
19.09
20.11
21.25
22.25
22.86
22.89
22.21
20.83
18.87
16.50
13.88
11.09
8.13
4.97
1.61
-1.91
-5.46
-8.92
-12.15
-15.05
-17.56
-19.70
-21.63
-23.60
-25.94
-28.91
-32.57
-36.62
-40.35
-42.79
-42.90
-39.96
-33.83
-24.98
-14.49
-3.66
6.30
14.56
20.75
24.88
27.16
27.81
27.07
25.22
22.66
19.92
17.53
15.93
15.30
15.60
16.54
17.81
19.05
20.04
20.66
20.80
20.43
19.46
17.88
15.68
12.97
9.94
6.83
3.82
1.01
-1.66
-4.32
-7.04
-9.81
-12.47
-14.83
-16.79
-18.41
-19.95
-21.76
-24.21
-27.50
-31.60
-36.17
-40.54
-43.78
-44.92
-43.17
-38.17
-30.22
-20.14
-9.18
1.38
10.48
17.51
22.34
25.15
26.28
26.08
24.90
23.03
20.84
18.74
17.14
16.35
16.51
17.50
19.08
20.88
22.57
23.90
24.70
24.91
24.53
23.57
22.06
20.02
17.50
14.58
11.42
8.28
5.43
3.04
1.13
-0.48
-2.06
-3.86
-6.00
-8.43
-10.99
-13.47
-15.74
-17.77
-19.61
-21.37
-23.20
-25.28
-27.74
-30.72
-34.23
-38.10
-41.87
-44.82
-46.07
-44.80
-40.52
-33.33
-23.88
-13.30
-2.78
6.63
14.28
19.89
23.43
25.06
24.97
23.46
20.97
18.06
15.27
13.11
11.88
11.67
12.39
13.76
15.43
17.05
18.32
19.11
19.39
19.17
18.45
17.16
15.24
12.75
9.90
6.97
4.24
1.77
-0.53
-2.88
-5.42
-8.15
-10.88
-13.34
-15.33
-16.84
-18.03
-19.23
-20.79
-23.05
-26.20
-30.16
-34.56
-38.65
-41.46
-42.01
-39.62
-34.12
-25.95
-16.06
-5.66
4.08
12.27
18.42
22.40
24.34
24.55
23.36
21.18
18.47
15.69
13.29
11.61
10.84
10.98
11.87
13.25
14.84
16.37
17.59
18.33
18.43
17.80
16.41
14.31
11.64
8.61
5.44
2.31
-0.70
-3.64
-6.64
-9.78
-13.05
-16.30
-19.33
-22.00
-24.32
-26.48
-28.77
-31.49
-34.85
-38.92
-43.45
-47.90
-51.38
-52.81
-51.24
-46.17
-37.80
-27.04
-15.27
-3.90
5.99
13.81
19.43
23.05
24.91
25.36
24.73
23.43
21.93
20.70
20.10
20.35
21.47
23.28
25.50
27.83
29.99
31.77
33.04
33.75
33.89
33.45
32.40
30.72
28.38
25.43
22.02
18.43
14.96
11.88
9.25
6.97
4.77
2.37
-0.36
-3.38
-6.50
-9.54
-12.40
-15.11
-17.80
-20.64
-23.74
-27.20
-31.12
-35.48
-40.05
-44.28
-47.28
-47.99
-45.54
-39.57
-30.41
-19.09
-7.04
4.26
13.73
20.80
25.48
28.13
29.26
29.28
28.45
26.93
24.91
22.71
20.73
19.40
18.99
19.49
20.67
22.15
23.57
24.72
25.50
25.94
26.04
25.74
24.91
23.42
21.17
18.20
14.69
10.96
7.34
4.10
1.37
-0.91
-2.87
-4.73
-6.66
-8.79
-11.19
-13.79
-16.48
-19.08
-21.44
-23.50
-25.33
-27.19
-29.41
-32.32
-36.02
-40.27
-44.41
-47.48
-48.37
-46.18
-40.53
-31.68
-20.62
-8.69
2.64
12.24
19.52
24.42
27.26
28.48
28.45
27.40
25.49
22.97
20.26
17.87
16.33
15.91
16.60
18.06
19.80
21.38
22.55
23.29
23.66
23.69
23.26
22.15
20.20
17.45
14.20
10.90
7.95
5.50
3.44
1.48
-0.64
-3.08
-5.82
-8.80
-11.95
-15.19
-18.40
-21.37
-23.86
-25.73
-27.08
-28.31
-29.94
-32.46
-35.96
-40.02
-43.67
-45.70
-44.94
-40.72
-33.09
-22.85
-11.30
0.13
10.23
18.28
24.01
27.46
28.83
28.40
26.53
23.75
20.70
18.01
16.16
15.34
15.46
16.30
17.63
19.23
20.96
22.63
24.03
24.92
25.16
24.68
23.54
21.85
19.73
17.24
14.44
11.38
8.19
5.02
2.05
-0.58
-2.78
-4.59
-6.17
-7.71
-9.42
-11.40
-13.61
-15.90
-18.10
-20.10
-21.87
-23.50
-25.15
-26.98
-29.18
-31.88
-35.11
-38.71
-42.19
-44.76
-45.44
-43.34
-38.02
-29.66
-19.11
-7.67
3.31
12.74
19.99
24.90
27.64
28.55
27.96
26.19
23.57
20.52
17.54
15.13
13.71
13.43
14.17
15.58
17.28
18.92
20.34
21.51
22.43
23.00
23.07
22.43
21.02
18.93
16.41
13.76
11.19
8.73
6.29
3.78
1.19
-1.37
-3.67
-5.57
-7.07
-8.31
-9.56
-11.06
-12.91
-15.11
-17.54
-20.05
-22.49
-24.80
-26.94
-29.01
-31.21
-33.76
-36.76
-40.02
-42.95
-44.67
-44.21
-40.83
-34.36
-25.27
-14.57
-3.57
6.51
14.78
20.79
24.50
26.13
26.04
24.62
22.27
19.46
16.68
14.41
13.02
12.71
13.40
14.80
16.53
18.22
19.61
20.57
21.06
21.13
20.80
20.11
19.04
17.58
15.73
13.51
11.01
8.34
5.63
3.03
0.66
-1.41
-3.16
-4.68
-6.09
-7.55
-9.17
-10.99
-12.94
-14.92
-16.83
-18.61
-20.30
-22.04
-24.02
-26.42
-29.35
-32.75
-36.28
-39.32
-41.03
-40.56
-37.31
-31.23
-22.84
-13.14
-3.28
5.75
13.29
19.09
23.15
25.54
26.32
25.60
23.55
20.58
17.24
14.20
12.04
11.12
11.53
13.07
15.31
17.77
19.96
21.57
22.44
22.60
22.16
21.25
19.99
18.44
16.62
14.55
12.24
9.73
7.09
4.43
1.91
-0.36
-2.31
-4.02
-5.63
-7.33
-9.24
-11.34
-13.53
-15.67
-17.62
-19.35
-20.90
-22.45
-24.21
-26.43
-29.31
-32.78
-36.46
-39.58
-41.18
-40.31
-36.43
-29.59
-20.49
-10.27
-0.23
8.61
15.60
20.57
23.62
24.98
24.90
23.63
21.47
18.78
15.97
13.47
11.63
10.69
10.75
11.76
13.53
15.76
18.09
20.18
21.74
22.59
22.60
21.73
20.00
17.54
14.61
11.55
8.69
6.23
4.22
2.55
1.04
-0.48
-2.15
-4.05
-6.20
-8.53
-10.87
-13.01
-14.77
-16.12
-17.19
-18.21
-19.43
-21.06
-23.27
-26.19
-29.82
-33.90
-37.84
-40.71
-41.48
-39.30
-33.90
-25.69
-15.72
-5.29
4.31
12.19
17.93
21.52
23.26
23.52
22.67
20.99
18.79
16.42
14.27
12.80
12.29
12.79
14.12
15.88
17.65
19.14
20.22
20.92
21.31
21.41
21.19
20.55
19.39
17.66
15.37
12.62
9.56
6.43
3.47
0.89
-1.22
-2.94
-4.45
-6.02
-7.82
-9.87
-12.06
-14.15
-15.96
-17.43
-18.63
-19.79
-21.18
-23.09
-25.69
-28.98
-32.67
-36.16
-38.53
-38.83
-36.30
-30.68
-22.36
-12.36
-1.98
7.49
15.14
20.55
23.73
25.00
24.71
23.22
20.85
18.00
15.11
12.70
11.14
10.63
11.07
12.17
13.56
14.94
16.13
17.13
17.94
18.57
18.96
18.91
18.23
16.76
14.52
11.66
8.46
5.22
2.16
-0.57
-2.95
-5.04
-6.91
-8.63
-10.26
-11.79
-13.18
-14.44
-15.60
-16.80
-18.20
-19.98
-22.29
-25.15
-28.46
-31.93
-35.07
-37.20
-37.57
-35.56
-30.96
-24.05
-15.59
-6.56
2.07
9.61
15.66
20.07
22.78
23.81
23.26
21.40
18.66
15.63
12.96
11.14
10.48
11.02
12.53
14.64
16.91
18.98
20.57
21.60
22.00
21.77
20.93
19.50
17.56
15.23
12.65
9.93
7.16
4.44
1.87
-0.42
-2.36
-3.98
-5.45
-7.00
-8.83
-10.98
-13.29
-15.53
-17.47
-19.06
-20.43
-21.86
-23.67
-26.12
-29.27
-32.99
-36.84
-40.11
-41.89
-41.35
-37.95
-31.74
-23.36
-13.85
-4.38
4.11
11.06
16.22
19.65
21.45
21.82
20.99
19.28
17.10
14.89
13.06
11.92
11.67
12.33
13.80
15.81
18.04
20.15
21.86
23.00
23.52
23.42
22.73
21.44
19.56
17.13
14.29
11.28
8.36
5.74
3.53
1.72
0.22
-1.11
-2.44
-3.90
-5.61
-7.61
-9.89
-12.29
-14.63
-16.71
-18.50
-20.09
-21.72
-23.67
-26.16
-29.29
-32.95
-36.82
-40.29
-42.56
-42.67
-39.85
-33.81
-24.93
-14.30
-3.34
6.54
14.36
19.73
22.78
23.93
23.68
22.43
20.53
18.33
16.21
14.57
13.71
13.81
14.81
16.43
18.32
20.12
21.62
22.73
23.49
23.94
24.02
23.59
22.50
20.66
18.14
15.17
12.04
9.03
6.29
3.90
1.83
0.04
-1.50
-2.84
-4.08
-5.34
-6.75
-8.41
-10.36
-12.54
-14.86
-17.16
-19.34
-21.33
-23.18
-25.05
-27.21
-29.93
-33.37
-37.35
-41.23
-44.04
-44.65
-42.15
-36.27
-27.47
-16.90
-6.01
3.87
11.84
17.55
21.10
22.84
23.17
22.43
20.92
18.91
16.78
14.92
13.72
13.46
14.25
15.96
18.22
20.58
22.64
24.11
24.95
25.23
25.06
24.45
23.35
21.67
19.41
16.73
13.92
11.28
9.00
7.08
5.38
3.73
2.01
0.26
-1.41
-2.89
-4.14
-5.29
-6.53
-8.09
-10.10
-12.53
-15.19
-17.84
-20.29
-22.52
-24.68
-27.01
-29.80
-33.16
-36.93
-40.62
-43.43
-44.42
-42.76
-38.02
-30.36
-20.54
-9.74
0.73
9.78
16.75
21.41
23.92
24.63
23.96
22.36
20.28
18.22
16.64
15.93
16.29
17.64
19.64
21.79
23.61
24.84
25.49
25.82
26.11
26.48
26.82
26.82
26.18
24.76
22.70
20.30
17.88
15.67
13.71
11.92
10.21
8.52
6.86
5.31
3.95
2.80
1.79
0.80
-0.36
-1.81
-3.65
-5.82
-8.21
-10.66
-13.01
-15.19
-17.21
-19.20
-21.41
-24.11
-27.52
-31.65
-36.15
-40.30
-43.08
-43.48
-40.83
-35.04
-26.69
-16.86
-6.84
2.14
9.22
13.93
16.21
16.29
14.59
11.65
7.99
4.11
0.41
-2.80
-5.28
-6.89
-7.53
-7.22
-6.14
-4.51
-2.57
-0.53
1.50
3.42
5.18
6.67
7.75
8.34
8.47
8.29
8.05
8.03
8.42
9.25
10.32
11.29
11.79
11.58
10.69
9.40
8.09
7.09
6.44
5.89
5.02
3.49
1.20
-1.66
-4.68
-7.50
-9.96
-12.18
-14.49
-17.31
-21.03
-25.86
-31.74
-38.26
-44.64
-49.74
-52.32
-51.39
-46.54
-38.24
-27.69
-16.55
-6.40
1.67
7.25
10.52
12.03
12.35
11.99
11.35
10.80
10.74
11.53
13.46
16.54
20.57
25.12
29.66
33.73
37.01
39.38
40.83
41.42
41.17
40.10
38.22
35.61
32.49
29.16
25.95
23.10
20.69
18.62
16.66
14.57
12.19
9.52
6.73
4.06
1.75
-0.12
-1.67
-3.16
-4.94
-7.23
-10.06
-13.22
-16.40
-19.32
-21.86
-24.08
-26.17
-28.36
-30.89
-33.90
-37.41
-41.19
-44.74
-47.24
-47.76
-45.49
-40.10
-31.85
-21.63
-10.67
-0.27
8.57
15.24
19.60
21.82
22.29
21.45
19.78
17.73
15.76
14.27
13.62
13.95
15.21
17.12
19.25
21.20
22.68
23.60
24.01
24.04
23.82
23.39
22.73
21.79
20.51
18.84
16.83
14.57
12.27
10.19
8.51
7.25
6.28
5.34
4.18
2.70
0.98
-0.77
-2.37
-3.70
-4.89
-6.14
-7.71
-9.74
-12.21
-14.90
-17.56
-19.94
-21.97
-23.75
-25.54
-27.60
-30.21
-33.48
-37.38
-41.60
-45.53
-48.28
-48.85
-46.39
-40.59
-31.84
-21.18
-10.00
0.36
8.95
15.38
19.65
22.04
22.89
22.54
21.32
19.61
17.80
16.27
15.28
14.97
15.33
16.28
17.64
19.25
20.91
22.50
23.89
25.00
25.76
26.07
25.77
24.74
22.93
20.44
17.55
14.65
12.15
10.28
9.03
8.15
7.24
5.97
4.18
1.99
-0.34
-2.50
-4.31
-5.81
-7.18
-8.66
-10.40
-12.45
-14.72
-17.07
-19.38
-21.58
-23.70
-25.80
-27.99
-30.38
-33.10
-36.18
-39.50
-42.64
-44.86
-45.27
-43.07
-37.87
-29.90
-20.07
-9.64
0.13
8.28
14.38
18.45
20.74
21.59
21.26
20.03
18.21
16.22
14.54
13.59
13.61
14.59
16.31
18.39
20.52
22.47
24.11
25.42
26.32
26.69
26.41
25.43
23.78
21.64
19.26
16.90
14.74
12.87
11.25
9.76
8.17
6.28
3.98
1.31
-1.55
-4.24
-6.50
-8.17
-9.35
-10.35
-11.55
-13.24
-15.49
-18.16
-20.92
-23.47
-25.63
-27.42
-29.02
-30.72
-32.80
-35.42
-38.53
-41.73
-44.29
-45.25
-43.69
-39.05
-31.42
-21.51
-10.56
0.12
9.43
16.76
21.95
25.16
26.66
26.72
25.59
23.60
21.16
18.79
16.98
16.05
16.10
16.96
18.29
19.79
21.23
22.51
23.60
24.46
24.95
24.91
24.19
22.74
20.71
18.34
15.90
13.58
11.49
9.61
7.87
6.21
4.60
3.05
1.61
0.33
-0.78
-1.74
-2.65
-3.65
-4.90
-6.56
-8.73
-11.38
-14.34
-17.30
-19.89
-21.88
-23.27
-24.31
-25.48
-27.26
-30.06
-33.99
-38.80
-43.81
-48.01
-50.16
-49.17
-44.44
-36.17
-25.37
-13.56
-2.34
7.11
14.21
18.96
21.67
22.77
22.65
21.69
20.30
18.88
17.76
17.12
17.00
17.35
18.05
19.04
20.19
21.41
22.63
23.76
24.76
25.55
25.96
25.76
24.72
22.78
20.13
17.16
14.34
12.00
10.21
8.80
7.49
6.04
4.36
2.50
0.59
-1.24
-2.95
-4.55
-6.08
-7.62
-9.20
-10.85
-12.58
-14.42
-16.37
-18.45
-20.65
-23.01
-25.60
-28.55
-32.01
-36.00
-40.23
-44.02
-46.40
-46.38
-43.28
-37.05
-28.29
-18.09
-7.70
1.77
9.56
15.33
19.10
21.13
21.77
21.40
20.34
18.85
17.18
15.60
14.38
13.76
13.90
14.78
16.30
18.21
20.25
22.11
23.50
24.17
23.94
22.81
20.90
18.43
15.68
12.88
10.23
7.86
5.81
4.02
2.38
0.75
-0.96
-2.69
-4.31
-5.67
-6.70
-7.55
-8.40
-9.40
-10.52
-11.57
-12.27
-12.46
-12.24
-11.93
-12.07
-13.17
-15.57
-19.30
-23.90
-28.53
-32.02
-33.23
-31.40
-26.39
-18.79
-9.74
-0.63
7.40
13.59
17.77
20.15
21.14
21.12
20.33
18.90
16.94
14.65
12.35
10.45
9.32
9.15
9.88
11.28
13.00
14.74
16.24
17.32
17.86
17.81
17.21
16.15
14.76
13.09
11.13
8.84
6.24
3.51
0.94
-1.14
-2.56
-3.41
-4.01
-4.81
-6.10
-7.94
-10.14
-12.33
-14.16
-15.53
-16.60
-17.69
-19.19
-21.35
-24.25
-27.84
-31.99
-36.41
-40.63
-43.84
-45.05
-43.38
-38.35
-30.27
-20.18
-9.51
0.31
8.29
14.05
17.75
19.76
20.50
20.29
19.36
17.89
16.17
14.53
13.32
12.87
13.33
14.66
16.61
18.79
20.82
22.44
23.53
24.11
24.19
23.76
22.78
21.19
19.01
16.40
13.56
10.73
8.11
5.83
3.93
2.37
1.02
-0.32
-1.85
-3.71
-5.91
-8.31
-10.71
-12.92
-14.85
-16.54
-18.14
-19.84
-21.84
-24.33
-27.42
-31.10
-35.04
-38.57
-40.73
-40.51
-37.21
-30.77
-21.84
-11.69
-1.79
6.66
12.95
16.97
19.05
19.66
19.27
18.23
16.80
15.26
13.92
13.06
12.94
13.61
14.93
16.61
18.32
19.77
20.83
21.48
21.79
21.79
21.44
20.63
19.26
17.30
14.91
12.29
9.72
7.38
5.36
3.62
2.10
0.70
-0.67
-2.10
-3.70
-5.51
-7.56
-9.79
-12.09
-14.32
-16.43
-18.42
-20.41
-22.56
-25.06
-28.08
-31.66
-35.61
-39.40
-42.19
-42.98
-40.90
-35.62
-27.48
-17.47
-7.01
2.56
10.26
15.70
18.98
20.53
20.83
20.31
19.29
18.05
16.89
16.11
15.96
16.55
17.80
19.47
21.22
22.79
24.02
24.91
25.49
25.76
25.62
24.90
23.50
21.45
18.98
16.45
14.17
12.32
10.85
9.56
8.23
6.75
5.12
3.49
2.00
0.68
-0.54
-1.85
-3.44
-5.40
-7.69
-10.13
-12.55
-14.80
-16.86
-18.81
-20.74
-22.76
-25.05
-27.78
-31.08
-34.90
-38.77
-41.85
-43.05
-41.43
-36.56
-28.80
-19.18
-9.10
0.11
7.56
12.92
16.33
18.18
18.84
18.60
17.70
16.43
15.14
14.30
14.21
15.00
16.45
18.15
19.70
20.87
21.64
22.13
22.46
22.61
22.47
21.93
20.91
19.44
17.62
15.57
13.38
11.13
8.89
6.76
4.79
3.06
1.60
0.45
-0.44
-1.23
-2.09
-3.26
-4.88
-6.93
-9.27
-11.68
-13.92
-15.86
-17.50
-18.99
-20.56
-22.52
-25.03
-28.13
-31.46
-34.38
-36.03
-35.59
-32.54
-26.91
-19.25
-10.49
-1.74
6.06
12.23
16.48
18.80
19.42
18.67
16.97
14.77
12.51
10.61
9.38
9.00
9.49
10.70
12.41
14.30
16.09
17.52
18.42
18.69
18.31
17.35
15.91
14.14
12.19
10.16
8.11
6.02
3.90
1.78
-0.22
-1.95
-3.30
-4.30
-5.12
-6.04
-7.32
-9.05
-11.16
-13.43
-15.61
-17.53
-19.22
-20.83
-22.55
-24.58
-27.04
-29.99
-33.41
-37.12
-40.71
-43.51
-44.69
-43.51
-39.56
-32.96
-24.39
-14.89
-5.55
2.67
9.18
13.76
16.50
17.73
17.88
17.41
16.72
16.08
15.65
15.58
15.98
16.95
18.41
20.15
21.77
22.89
23.35
23.20
22.71
22.13
21.55
20.85
19.83
18.39
16.58
14.64
12.82
11.25
9.88
8.50
6.92
5.04
2.92
0.81
-1.01
-2.36
-3.23
-3.81
-4.48
-5.63
-7.48
-10.06
-13.11
-16.27
-19.19
-21.69
-23.78
-25.66
-27.61
-29.91
-32.80
-36.31
-40.23
-44.04
-46.91
-47.88
-46.13
-41.27
-33.54
-23.78
-13.26
-3.27
5.15
11.46
15.58
17.79
18.53
18.26
17.39
16.37
15.59
15.35
15.82
16.94
18.49
20.16
21.71
22.98
23.96
24.70
25.27
25.70
25.97
25.99
25.60
24.63
23.01
20.81
18.27
15.67
13.28
11.18
9.28
7.45
5.60
3.80
2.22
0.96
-0.02
-0.94
-2.13
-3.76
-5.87
-8.26
-10.71
-12.99
-15.05
-16.95
-18.90
-21.12
-23.83
-27.18
-31.15
-35.50
-39.71
-43.05
-44.68
-43.84
-40.13
-33.64
-25.03
-15.37
-5.90
2.34
8.70
13.02
15.51
16.62
16.75
16.25
15.39
14.38
13.48
12.93
12.91
13.52
14.71
16.34
18.19
20.01
21.55
22.63
23.13
23.06
22.46
21.43
19.99
18.18
15.98
13.41
10.58
7.66
4.85
2.35
0.27
-1.41
-2.80
-4.11
-5.55
-7.27
-9.33
-11.69
-14.24
-16.85
-19.45
-22.01
-24.56
-27.26
-30.32
-33.97
-38.27
-42.92
-47.22
-50.10
-50.46
-47.54
-41.22
-32.10
-21.31
-10.16
0.17
8.86
15.45
19.85
22.20
22.86
22.36
21.30
20.21
19.45
19.16
19.26
19.61
20.08
20.69
21.46
22.48
23.68
24.92
25.97
26.57
26.51
25.67
24.07
21.83
19.17
16.35
13.68
11.44
9.83
8.88
8.50
8.42
8.36
8.09
7.49
6.59
5.45
4.12
2.64
0.93
-1.02
-3.20
-5.56
-8.04
-10.69
-13.63
-17.04
-21.09
-25.84
-31.23
-37.03
-42.79
-47.79
-51.14
-51.87
-49.27
-43.17
-34.10
-23.22
-11.96
-1.65
6.89
13.41
18.03
21.09
22.83
23.44
23.03
21.83
20.19
18.57
17.41
17.04
17.54
18.75
20.42
22.23
23.98
25.54
26.82
27.69
27.96
27.46
26.12
24.04
21.47
18.75
16.11
13.65
11.36
9.16
7.03
4.95
2.95
1.01
-0.92
-2.89
-4.91
-6.96
-8.98
-10.95
-12.82
-14.60
-16.30
-18.05
-20.07
-22.61
-25.91
-30.05
-34.83
-39.75
-44.01
-46.67
-46.81
-43.83
-37.63
-28.74
-18.16
-7.21
2.95
11.49
18.07
22.71
25.59
26.86
26.62
25.05
22.52
19.55
16.82
14.90
14.11
14.42
15.57
17.15
18.80
20.31
21.57
22.53
23.08
22.99
21.99
19.91
16.82
13.05
9.15
5.57
2.60
0.16
-1.99
-4.15
-6.44
-8.85
-11.21
-13.37
-15.27
-16.95
-18.51
-20.08
-21.84
-24.02
-26.87
-30.47
-34.61
-38.68
-41.69
-42.55
-40.36
-34.77
-26.17
-15.58
-4.43
5.90
14.43
20.74
24.90
27.17
27.83
27.03
24.96
21.96
18.62
15.68
13.81
13.36
14.24
16.01
18.09
20.02
21.54
22.54
23.04
22.96
22.20
20.63
18.18
14.96
11.25
7.38
3.69
0.38
-2.59
-5.36
-8.17
-11.21
-14.49
-17.91
-21.20
-24.10
-26.40
-28.04
-29.21
-30.29
-31.78
-34.12
-37.45
-41.47
-45.38
-48.00
-48.12
-44.82
-37.84
-27.67
-15.43
-2.62
9.30
19.23
26.60
31.39
34.00
35.02
35.00
34.36
33.32
32.02
30.56
29.15
28.02
27.44
27.55
28.32
29.56
30.96
32.20
33.05
33.36
33.10
32.24
30.78
28.67
25.94
22.66
19.04
15.35
11.92
8.96
6.54
4.55
2.78
0.99
-1.02
-3.30
-5.81
-8.38
-10.84
-13.02
-14.86
-16.44
-17.97
-19.74
-22.11
-25.31
-29.49
-34.50
-39.85
-44.72
-48.02
-48.67
-45.90
-39.56
-30.17
-18.87
-7.10
3.80
12.79
19.38
23.53
25.55
25.93
25.18
23.75
21.96
20.09
18.33
16.90
15.98
15.66
15.93
16.65
17.63
18.67
19.60
20.27
20.52
20.19
19.14
17.31
14.84
11.89
8.70
5.42
2.13
-1.17
-4.45
-7.64
-10.63
-13.30
-15.64
-17.73
-19.72
-21.79
-24.10
-26.75
-29.74
-32.99
-36.21
-38.90
-40.40
-39.97
-37.11
-31.70
-24.21
-15.54
-6.81
1.03
7.46
12.35
15.86
18.11
19.14
18.85
17.22
14.50
11.19
8.00
5.57
4.29
4.22
5.10
6.49
7.93
9.07
9.73
9.94
9.81
9.39
8.58
7.11
4.68
1.25
-2.91
-7.20
-10.90
-13.52
-14.99
-15.64
-16.11
-16.97
-18.69
-21.41
-25.02
-29.10
-32.98
-35.77
-36.53
-34.58
-29.70
-22.32
-13.42
-4.27
3.89
10.17
14.18
15.96
15.86
14.34
11.78
8.53
4.94
1.36
-1.72
-3.84
-4.73
-4.43
-3.28
-1.81
-0.52
0.33
0.75
0.86
0.78
0.40
-0.53
-2.36
-5.30
-9.26
-13.83
-18.30
-21.95
-24.24
-24.98
-24.44
-23.20
-21.89
-21.06
-21.00
-21.72
-22.93
-24.03
-24.16
-22.34
-17.77
-10.19
-0.04
11.49
22.86
32.61
39.81
44.18
45.98
45.74
44.00
41.20
37.73
33.96
30.35
27.32
25.20
24.09
23.82
23.98
24.07
23.71
22.79
21.41
19.83
18.24
16.62
14.69
12.09
8.59
4.23
-0.68
-5.64
-10.23
-14.16
-17.38
-20.00
-22.26
-24.47
-26.93
-29.85
-33.22
-36.67
-39.46
-40.63
-39.24
-34.67
-26.88
-16.49
-4.60
7.46
18.41
27.31
33.59
37.12
38.08
36.92
34.23
30.70
27.04
23.85
21.60
20.52
20.60
21.67
23.40
25.39
27.21
28.49
28.98
28.61
27.49
25.86
23.99
22.10
20.27
18.42
16.40
14.02
11.18
7.89
4.33
0.77
-2.49
-5.26
-7.49
-9.37
-11.17
-13.27
-15.97
-19.47
-23.75
-28.50
-32.98
-36.15
-36.91
-34.41
-28.45
-19.67
-9.34
1.00
10.00
16.88
21.44
23.94
24.82
24.49
23.27
21.42
19.25
17.08
15.32
14.27
14.05
14.60
15.62
16.72
17.54
17.90
17.77
17.27
16.51
15.52
14.27
12.63
10.56
8.05
5.19
2.13
-0.96
-3.90
-6.56
-8.87
-10.87
-12.66
-14.36
-16.13
-18.07
-20.27
-22.81
-25.67
-28.65
-31.24
-32.71
-32.30
-29.45
-24.11
-16.77
-8.34
0.08
7.51
13.25
16.96
18.65
18.62
17.33
15.24
12.82
10.39
8.22
6.53
5.46
5.10
5.41
6.23
7.29
8.28
8.98
9.26
9.08
8.48
7.51
6.20
4.62
2.80
0.72
-1.61
-4.16
-6.79
-9.29
-11.43
-13.14
-14.47
-15.66
-16.99
-18.63
-20.63
-22.89
-25.17
-27.13
-28.40
-28.53
-27.11
-23.88
-18.90
-12.61
-5.76
0.75
6.16
9.99
12.10
12.67
12.04
10.60
8.69
6.64
4.71
3.10
1.99
1.42
1.38
1.73
2.30
2.91
3.42
3.76
3.87
3.74
3.34
2.67
1.69
0.45
-1.03
-2.68
-4.47
-6.37
-8.36
-10.39
-12.36
-14.18
-15.72
-16.95
-17.89
-18.57
-19.04
-19.37
-19.71
-20.26
-21.23
-22.69
-24.36
-25.57
-25.48
-23.33
-18.85
-12.42
-4.98
2.30
8.42
12.87
15.62
16.98
17.31
16.87
15.74
13.98
11.66
9.03
6.43
4.23
2.67
1.83
1.68
2.08
2.89
3.95
5.10
6.14
6.80
6.88
6.24
4.91
3.06
0.94
-1.23
-3.28
-5.16
-6.88
-8.50
-10.05
-11.57
-13.07
-14.53
-15.92
-17.23
-18.45
-19.66
-21.00
-22.65
-24.72
-27.13
-29.50
-31.21
-31.51
-29.83
-25.99
-20.27
-13.40
-6.27
0.29
5.65
9.50
11.77
12.58
12.16
10.86
9.02
6.97
5.02
3.38
2.21
1.60
1.60
2.16
3.20
4.53
5.97
7.31
8.32
8.84
8.73
7.98
6.69
5.06
3.33
1.63
-0.04
-1.76
-3.65
-5.73
-7.94
-10.14
-12.23
-14.16
-15.94
-17.60
-19.15
-20.66
-22.27
-24.21
-26.62
-29.48
-32.37
-34.59
-35.30
-33.88
-30.09
-24.26
-17.05
-9.33
-1.93
4.52
9.60
13.07
14.87
15.09
13.98
11.92
9.41
6.96
5.00
3.86
3.67
4.39
5.84
7.74
9.77
11.65
13.15
14.13
14.57
14.57
14.31
14.01
13.75
13.46
12.93
11.89
10.18
7.80
4.96
1.96
-0.94
-3.64
-6.16
-8.62
-11.13
-13.72
-16.45
-19.34
-22.45
-25.79
-29.12
-31.98
-33.66
-33.45
-30.82
-25.74
-18.67
-10.51
-2.31
5.00
10.84
15.01
17.57
18.74
18.72
17.68
15.86
13.55
11.21
9.29
8.14
7.92
8.52
9.70
11.15
12.65
14.05
15.26
16.17
16.65
16.56
15.78
14.31
12.29
9.90
7.34
4.72
2.01
-0.86
-3.95
-7.19
-10.38
-13.27
-15.70
-17.68
-19.46
-21.40
-23.86
-27.03
-30.79
-34.67
-37.90
-39.56
-38.82
-35.20
-28.71
-19.95
-9.94
0.12
9.18
16.49
21.75
24.97
26.40
26.36
25.16
23.08
20.49
17.79
15.49
14.02
13.66
14.41
16.00
18.03
20.07
21.81
23.04
23.68
23.68
23.03
21.77
19.95
17.67
14.99
11.92
8.52
4.88
1.17
-2.37
-5.55
-8.31
-10.73
-13.02
-15.44
-18.19
-21.42
-25.18
-29.37
-33.64
-37.30
-39.41
-38.99
-35.33
-28.39
-18.87
-8.07
2.56
11.83
19.08
24.19
27.35
28.84
28.89
27.65
25.34
22.32
19.11
16.30
14.40
13.69
14.19
15.70
17.83
20.15
22.26
23.83
24.64
24.65
23.86
22.38
20.30
17.67
14.55
10.97
7.07
3.10
-0.66
-3.94
-6.68
-9.04
-11.32
-13.84
-16.84
-20.37
-24.34
-28.54
-32.66
-36.15
-38.31
-38.35
-35.64
-29.94
-21.59
-11.46
-0.75
9.36
17.91
24.39
28.64
30.82
31.19
30.08
27.82
24.77
21.37
18.12
15.55
14.09
13.96
15.06
17.00
19.24
21.22
22.56
23.08
22.80
21.82
20.22
18.06
15.36
12.16
8.53
4.62
0.64
-3.23
-6.81
-9.99
-12.75
-15.17
-17.44
-19.80
-22.54
-25.84
-29.74
-34.00
-38.05
-41.06
-42.08
-40.29
-35.29
-27.23
-16.93
-5.65
5.24
14.60
21.73
26.43
28.89
29.42
28.40
26.12
22.98
19.49
16.28
13.95
12.89
13.18
14.58
16.64
18.87
20.88
22.36
23.14
23.07
22.12
20.33
17.86
14.87
11.51
7.86
3.98
-0.04
-4.01
-7.67
-10.81
-13.37
-15.49
-17.50
-19.74
-22.51
-25.97
-30.09
-34.63
-39.08
-42.63
-44.31
-43.20
-38.76
-31.04
-20.84
-9.44
1.69
11.34
18.78
23.85
26.79
27.93
27.58
25.94
23.24
19.86
16.42
13.66
12.14
12.09
13.25
15.07
16.93
18.44
19.46
20.05
20.31
20.17
19.41
17.77
15.11
11.48
7.17
2.60
-1.78
-5.64
-8.79
-11.26
-13.31
-15.31
-17.67
-20.68
-24.39
-28.49
-32.33
-34.97
-35.41
-32.84
-26.90
-17.86
-6.64
5.36
16.63
25.89
32.38
35.91
36.80
35.56
32.74
28.82
24.24
19.46
15.02
11.46
9.21
8.41
8.90
10.24
11.86
13.21
13.93
13.88
13.12
11.86
10.29
8.50
6.46
4.07
1.23
-2.04
-5.57
-9.07
-12.25
-14.92
-17.05
-18.77
-20.30
-21.93
-23.90
-26.44
-29.64
-33.43
-37.47
-41.14
-43.54
-43.74
-40.98
-35.00
-26.18
-15.46
-4.16
6.38
15.12
21.50
25.46
27.30
27.44
26.35
24.44
22.09
19.71
17.75
16.60
16.48
17.39
19.05
20.99
22.76
23.99
24.54
24.45
23.80
22.63
20.91
18.58
15.65
12.28
8.72
5.31
2.28
-0.27
-2.39
-4.25
-6.04
-7.92
-9.99
-12.21
-14.47
-16.67
-18.78
-20.94
-23.41
-26.51
-30.49
-35.29
-40.45
-45.10
-48.10
-48.34
-45.11
-38.37
-28.79
-17.66
-6.44
3.63
11.73
17.58
21.20
22.77
22.50
20.68
17.73
14.31
11.17
9.04
8.35
9.16
11.18
13.85
16.60
19.00
20.80
21.95
22.42
22.19
21.15
19.19
16.26
12.53
8.37
4.27
0.65
-2.34
-4.81
-7.09
-9.48
-12.12
-14.88
-17.48
-19.69
-21.48
-23.09
-24.96
-27.60
-31.33
-36.12
-41.47
-46.41
-49.68
-50.01
-46.56
-39.23
-28.72
-16.41
-3.94
7.25
16.19
22.58
26.54
28.46
28.79
27.93
26.28
24.30
22.54
21.50
21.52
22.58
24.35
26.29
27.88
28.84
29.15
28.98
28.57
27.99
27.16
25.87
23.91
21.17
17.70
13.77
9.73
5.95
2.73
0.17
-1.86
-3.70
-5.70
-8.07
-10.83
-13.79
-16.69
-19.30
-21.55
-23.53
-25.45
-27.66
-30.51
-34.33
-39.21
-44.82
-50.34
-54.49
-55.85
-53.32
-46.55
-36.12
-23.40
-10.13
2.07
12.10
19.58
24.62
27.67
29.14
29.37
28.61
27.19
25.59
24.30
23.75
24.07
25.12
26.54
27.98
29.21
30.16
30.85
31.22
31.16
30.47
29.05
26.95
24.31
21.37
18.33
15.33
12.43
9.64
6.99
4.48
2.08
-0.27
-2.70
-5.30
-8.14
-11.22
-14.40
-17.50
-20.30
-22.67
-24.65
-26.48
-28.50
-31.13
-34.65
-39.17
-44.46
-49.91
-54.51
-57.05
-56.40
-51.85
-43.44
-32.01
-18.96
-5.91
5.80
15.29
22.24
26.78
29.21
29.98
29.50
28.21
26.55
24.92
23.68
23.06
23.20
24.09
25.62
27.53
29.55
31.35
32.62
33.16
32.87
31.75
29.91
27.48
24.62
21.48
18.23
15.02
12.00
9.29
6.95
4.93
3.07
1.19
-0.83
-3.03
-5.35
-7.68
-9.99
-12.34
-14.80
-17.48
-20.35
-23.28
-26.09
-28.67
-31.07
-33.58
-36.60
-40.46
-45.20
-50.36
-54.96
-57.65
-57.16
-52.63
-44.07
-32.36
-19.01
-5.77
5.87
15.00
21.32
25.08
26.78
27.01
26.27
24.97
23.49
22.16
21.30
21.16
21.84
23.25
25.11
27.06
28.79
30.11
31.00
31.51
31.65
31.32
30.34
28.60
26.08
22.96
19.57
16.31
13.53
11.36
9.74
8.39
7.00
5.26
3.11
0.70
-1.68
-3.72
-5.33
-6.64
-7.93
-9.57
-11.76
-14.53
-17.71
-21.01
-24.19
-27.05
-29.52
-31.62
-33.52
-35.52
-38.02
-41.36
-45.62
-50.38
-54.64
-57.02
-56.17
-51.29
-42.44
-30.64
-17.47
-4.67
6.42
15.06
21.11
24.86
26.73
27.14
26.45
25.01
23.20
21.48
20.32
20.06
20.83
22.51
24.72
27.01
29.04
30.62
31.80
32.69
33.36
33.69
33.42
32.30
30.22
27.30
23.87
20.36
17.15
14.44
12.21
10.28
8.43
6.49
4.40
2.25
0.14
-1.88
-3.85
-5.89
-8.16
-10.74
-13.60
-16.62
-19.61
-22.43
-25.05
-27.55
-30.10
-32.86
-36.06
-39.84
-44.21
-48.94
-53.43
-56.73
-57.72
-55.51
-49.76
-40.91
-30.13
-18.96
-8.82
-0.64
5.29
9.15
11.32
12.18
11.91
10.69
8.73
6.41
4.28
2.87
2.57
3.51
5.55
8.31
11.37
14.37
17.01
19.09
20.42
20.87
20.32
18.80
16.46
13.61
10.55
7.53
4.63
1.78
-1.14
-4.20
-7.38
-10.50
-13.36
-15.78
-17.72
-19.30
-20.81
-22.62
-25.11
-28.46
-32.52
-36.68
-39.95
-41.14
-39.25
-33.83
-25.21
-14.44
-3.00
7.65
16.43
22.89
27.05
29.30
30.05
29.64
28.37
26.50
24.36
22.35
20.81
19.99
19.94
20.50
21.42
22.45
23.36
24.04
24.41
24.39
23.83
22.57
20.45
17.48
13.86
9.95
6.13
2.71
-0.23
-2.81
-5.32
-8.03
-11.08
-14.38
-17.71
-20.73
-23.28
-25.39
-27.42
-29.86
-33.18
-37.54
-42.54
-47.27
-50.44
-50.81
-47.56
-40.61
-30.62
-18.85
-6.80
4.22
13.31
20.10
24.62
27.17
28.12
27.86
26.78
25.28
23.74
22.49
21.80
21.78
22.40
23.51
24.87
26.23
27.38
28.21
28.66
28.74
28.42
27.63
26.25
24.12
21.20
17.60
13.66
9.82
6.46
3.77
1.63
-0.29
-2.41
-4.99
-8.04
-11.32
-14.47
-17.19
-19.36
-21.05
-22.50
-24.02
-25.99
-28.75
-32.60
-37.56
-43.23
-48.69
-52.68
-53.84
-51.17
-44.42
-34.20
-21.86
-9.05
2.65
12.17
19.04
23.32
25.43
25.86
25.08
23.48
21.45
19.39
17.69
16.68
16.55
17.26
18.63
20.32
22.04
23.54
24.64
25.29
25.48
25.23
24.54
23.40
21.75
19.54
16.78
13.58
10.20
6.91
3.97
1.49
-0.56
-2.39
-4.20
-6.19
-8.40
-10.79
-13.23
-15.64
-17.97
-20.27
-22.63
-25.18
-28.04
-31.36
-35.26
-39.77
-44.69
-49.47
-53.11
-54.41
-52.25
-46.10
-36.25
-23.85
-10.55
1.97
12.42
20.18
25.26
28.05
29.13
28.99
28.07
26.69
25.17
23.80
22.87
22.60
23.10
24.33
26.11
28.16
30.15
31.79
32.89
33.33
33.11
32.25
30.76
28.64
25.91
22.65
19.05
15.37
11.83
8.59
5.70
3.12
0.79
-1.31
-3.20
-4.94
-6.67
-8.57
-10.81
-13.44
-16.38
-19.43
-22.38
-25.07
-27.46
-29.70
-32.06
-34.91
-38.55
-43.05
-48.00
-52.50
-55.23
-54.91
-50.72
-42.65
-31.59
-19.02
-6.57
4.47
13.34
19.83
24.10
26.44
27.20
26.76
25.56
24.09
22.81
22.08
22.06
22.71
23.86
25.26
26.66
27.88
28.79
29.33
29.52
29.38
28.94
28.21
27.16
25.73
23.88
21.64
19.11
16.48
13.97
11.72
9.85
8.31
6.99
5.74
4.44
3.06
1.62
0.17
-1.25
-2.65
-4.10
-5.66
-7.43
-9.47
-11.85
-14.55
-17.48
-20.46
-23.28
-25.75
-27.82
-29.61
-31.36
-33.46
-36.23
-39.81
-44.04
-48.30
-51.59
-52.75
-50.77
-45.16
-36.23
-25.03
-13.06
-1.84
7.59
14.72
19.63
22.68
24.27
24.69
24.17
22.90
21.19
19.41
17.99
17.22
17.26
18.04
19.36
20.99
22.70
24.29
25.61
26.49
26.80
26.50
25.60
24.22
22.46
20.42
18.17
15.78
13.35
11.06
9.09
7.51
6.25
5.14
3.95
2.57
1.07
-0.42
-1.76
-2.98
-4.24
-5.80
-7.79
-10.18
-12.76
-15.26
-17.49
-19.39
-21.06
-22.64
-24.28
-26.10
-28.21
-30.72
-33.72
-37.14
-40.65
-43.62
-45.16
-44.37
-40.57
-33.66
-24.21
-13.40
-2.72
6.55
13.64
18.38
21.16
22.53
22.93
22.61
21.62
20.07
18.23
16.45
15.11
14.45
14.53
15.23
16.38
17.85
19.53
21.33
23.10
24.64
25.74
26.20
25.92
24.90
23.30
21.39
19.47
17.82
16.55
15.56
14.60
13.35
11.56
9.14
6.22
3.00
-0.32
-3.63
-6.93
-10.31
-13.86
-17.64
-21.61
-25.70
-29.75
-33.66
-37.34
-40.81
-44.23
-47.88
-52.05
-56.97
-62.52
-68.19
-73.02
-75.88
-75.72
-71.95
-64.63
-54.39
-42.31
-29.57
-17.24
-6.14
3.18
10.39
15.34
18.07
18.80
17.91
15.92
13.42
10.97
9.03
7.89
7.66
8.22
9.33
10.64
11.80
12.55
12.66
12.06
10.73
8.79
6.43
3.90
1.39
-0.99
-3.20
-5.20
-6.88
-8.08
-8.62
-8.46
-7.76
-6.83
-6.04
-5.71
-6.05
-7.16
-9.06
-11.60
-14.40
-16.76
-17.78
-16.63
-12.91
-6.86
0.61
8.23
14.79
19.53
22.29
23.42
23.50
23.04
22.28
21.27
19.96
18.46
17.05
16.14
16.14
17.19
19.19
21.74
24.33
26.51
28.01
28.71
28.63
27.86
26.43
24.37
21.69
18.44
14.73
10.73
6.62
2.56
-1.36
-5.11
-8.68
-12.05
-15.21
-18.17
-21.06
-24.08
-27.46
-31.29
-35.35
-39.09
-41.67
-42.21
-40.08
-35.09
-27.59
-18.36
-8.46
1.09
9.44
16.08
20.87
23.91
25.46
25.79
25.15
23.77
21.94
20.06
18.54
17.79
18.02
19.18
20.96
22.90
24.50
25.42
25.54
24.95
23.85
22.41
20.66
18.45
15.61
12.08
8.02
3.81
-0.15
-3.59
-6.53
-9.23
-12.00
-15.05
-18.44
-22.12
-26.02
-30.04
-34.00
-37.48
-39.79
-40.09
-37.73
-32.52
-24.86
-15.70
-6.21
2.56
9.85
15.32
18.93
20.80
21.10
20.03
17.85
14.95
11.79
8.90
6.78
5.73
5.80
6.78
8.26
9.79
11.01
11.75
12.01
11.85
11.28
10.20
8.43
5.84
2.45
-1.50
-5.59
-9.35
-12.48
-14.90
-16.83
-18.63
-20.75
-23.46
-26.84
-30.67
-34.45
-37.48
-38.92
-38.05
-34.43
-28.06
-19.51
-9.72
0.17
9.14
16.52
22.00
25.65
27.70
28.45
28.16
27.04
25.31
23.26
21.26
19.67
18.82
18.84
19.63
20.87
22.15
23.10
23.52
23.33
22.52
21.08
18.98
16.20
12.78
8.89
4.77
0.70
-3.06
-6.31
-8.95
-11.09
-13.00
-15.06
-17.67
-21.08
-25.27
-29.95
-34.62
-38.61
-41.16
-41.52
-39.14
-33.82
-25.90
-16.24
-5.98
3.71
12.04
18.62
23.46
26.80
28.88
29.90
30.00
29.35
28.20
26.88
25.76
25.19
25.32
26.09
27.24
28.38
29.13
29.27
28.78
27.79
26.44
24.81
22.85
20.48
17.68
14.52
11.22
8.00
5.08
2.55
0.40
-1.53
-3.45
-5.56
-8.02
-10.81
-13.78
-16.65
-19.21
-21.39
-23.35
-25.42
-27.92
-31.08
-34.85
-38.84
-42.40
-44.68
-44.81
-42.14
-36.45
-28.08
-17.94
-7.28
2.60
10.73
16.66
20.49
22.67
23.74
24.16
24.21
24.05
23.81
23.64
23.71
24.10
24.79
25.64
26.44
27.04
27.38
27.50
27.49
27.36
27.01
26.29
25.02
23.15
20.71
17.87
14.85
11.93
9.32
7.19
5.57
4.32
3.23
2.07
0.68
-0.96
-2.81
-4.87
-7.15
-9.69
-12.46
-15.28
-17.92
-20.17
-21.97
-23.47
-24.99
-26.84
-29.33
-32.58
-36.49
-40.64
-44.29
-46.46
-46.13
-42.59
-35.74
-26.19
-15.13
-3.99
5.89
13.64
18.89
21.79
22.80
22.50
21.43
20.00
18.51
17.24
16.42
16.28
16.90
18.17
19.74
21.20
22.23
22.74
22.90
22.98
23.10
23.19
22.96
22.08
20.43
18.11
15.48
12.93
10.69
8.79
7.08
5.32
3.39
1.32
-0.76
-2.69
-4.39
-5.91
-7.38
-8.91
-10.57
-12.39
-14.34
-16.41
-18.56
-20.72
-22.79
-24.66
-26.34
-27.93
-29.65
-31.77
-34.46
-37.59
-40.66
-42.90
-43.38
-41.36
-36.47
-29.02
-19.86
-10.19
-1.23
6.15
11.59
15.16
17.16
17.93
17.71
16.68
15.03
13.11
11.36
10.20
9.91
10.51
11.82
13.52
15.30
16.95
18.36
19.49
20.31
20.76
20.73
20.13
18.93
17.21
15.13
12.91
10.79
8.91
7.32
5.99
4.84
3.79
2.73
1.59
0.37
-0.92
-2.17
-3.25
-4.11
-4.76
-5.40
-6.29
-7.66
-9.59
-11.97
-14.51
-16.90
-18.93
-20.57
-21.95
-23.27
-24.75
-26.56
-28.80
-31.46
-34.38
-37.16
-39.15
-39.55
-37.66
-33.14
-26.18
-17.53
-8.26
0.50
7.87
13.38
16.92
18.66
18.86
17.85
15.94
13.51
11.00
8.88
7.54
7.22
7.90
9.32
11.13
12.95
14.55
15.88
16.94
17.74
18.17
18.06
17.26
15.78
13.79
11.56
9.31
7.12
4.95
2.72
0.44
-1.72
-3.53
-4.85
-5.75
-6.46
-7.29
-8.49
-10.08
-11.90
-13.70
-15.25
-16.46
-17.40
-18.28
-19.32
-20.74
-22.66
-25.14
-28.07
-31.20
-34.02
-35.84
-35.88
-33.49
-28.44
-21.07
-12.23
-3.10
5.14
11.68
16.17
18.72
19.68
19.43
18.25
16.33
13.92
11.41
9.30
8.08
8.02
9.03
10.67
12.41
13.82
14.71
15.20
15.50
15.73
15.85
15.71
15.13
14.05
12.51
10.62
8.52
6.25
3.88
1.46
-0.94
-3.19
-5.19
-6.93
-8.44
-9.86
-11.30
-12.82
-14.40
-15.99
-17.54
-19.09
-20.66
-22.37
-24.27
-26.49
-29.11
-32.16
-35.50
-38.69
-41.02
-41.62
-39.76
-35.11
-27.91
-18.94
-9.24
0.07
8.18
14.56
19.06
21.75
22.84
22.59
21.31
19.30
16.96
14.70
13.01
12.26
12.63
14.00
16.00
18.12
19.95
21.21
21.88
22.02
21.73
21.04
19.91
18.32
16.32
13.98
11.45
8.88
6.41
4.11
1.99
0.01
-1.92
-3.87
-5.90
-8.01
-10.13
-12.19
-14.10
-15.80
-17.29
-18.67
-20.06
-21.66
-23.65
-26.22
-29.46
-33.22
-37.09
-40.34
-42.03
-41.27
-37.48
-30.72
-21.68
-11.55
-1.60
7.11
14.03
19.05
22.37
24.20
24.76
24.18
22.70
20.65
18.48
16.68
15.64
15.56
16.44
18.09
20.14
22.22
23.98
25.24
25.93
26.13
25.89
25.26
24.21
22.71
20.77
18.44
15.87
13.23
10.71
8.41
6.40
4.66
3.08
1.48
-0.32
-2.44
-4.86
-7.47
-10.06
-12.42
-14.44
-16.16
-17.69
-19.31
-21.35
-24.09
-27.68
-32.00
-36.53
-40.38
-42.50
-41.94
-38.17
-31.32
-22.11
-11.70
-1.37
7.82
15.17
20.38
23.48
24.67
24.27
22.69
20.40
17.94
15.78
14.28
13.60
13.70
14.42
15.54
16.88
18.30
19.67
20.88
21.78
22.23
22.06
21.13
19.32
16.62
13.19
9.36
5.61
2.41
0.04
-1.52
-2.58
-3.62
-5.07
-7.15
-9.76
-12.60
-15.28
-17.52
-19.21
-20.47
-21.59
-22.94
-24.86
-27.59
-31.16
-35.34
-39.53
-42.85
-44.19
-42.63
-37.67
-29.53
-19.11
-7.79
3.04
12.25
19.28
24.03
26.73
27.71
27.30
25.78
23.51
20.92
18.55
16.90
16.33
16.91
18.43
20.47
22.52
24.19
25.31
25.88
26.01
25.80
25.24
24.21
22.63
20.53
18.04
15.39
12.71
10.07
7.43
4.80
2.30
0.10
-1.65
-2.99
-4.20
-5.64
-7.63
-10.26
-13.35
-16.53
-19.46
-21.97
-24.10
-26.09
-28.25
-30.89
-34.27
-38.48
-43.30
-48.08
-51.74
-52.99
-50.74
-44.51
-34.71
-22.57
-9.77
2.07
11.84
19.09
23.90
26.65
27.75
27.53
26.32
24.53
22.63
21.16
20.51
20.89
22.22
24.19
26.40
28.42
29.97
30.94
31.36
31.36
31.00
30.27
29.06
27.30
25.00
22.35
19.59
16.95
14.53
12.30
10.18
8.08
6.05
4.19
2.59
1.26
0.06
-1.17
-2.63
-4.44
-6.65
-9.23
-12.05
-14.96
-17.76
-20.34
-22.71
-24.98
-27.40
-30.26
-33.75
-37.89
-42.35
-46.44
-49.13
-49.33
-46.20
-39.54
-29.86
-18.39
-6.64
4.02
12.67
18.98
23.04
25.17
25.72
25.04
23.52
21.64
19.91
18.80
18.56
19.20
20.48
22.05
23.58
24.84
25.77
26.40
26.82
27.03
26.97
26.55
25.67
24.32
22.56
20.51
18.26
15.91
13.55
11.32
9.38
7.84
6.71
5.81
4.88
3.69
2.20
0.54
-1.07
-2.43
-3.53
-4.53
-5.66
-7.09
-8.89
-10.94
-13.10
-15.20
-17.13
-18.85
-20.38
-21.87
-23.49
-25.53
-28.16
-31.39
-34.93
-38.18
-40.30
-40.44
-37.99
-32.80
-25.30
-16.37
-7.17
1.18
7.84
12.41
14.88
15.53
14.77
13.05
10.81
8.48
6.49
5.17
4.72
5.18
6.42
8.25
10.47
13.00
15.81
18.91
22.27
25.71
28.97
31.68
33.56
34.36
34.08
32.84
30.91
28.57
26.05
23.45
20.78
18.01
15.12
12.16
9.28
6.62
4.27
2.24
0.41
-1.35
-3.14
-5.00
-6.89
-8.77
-10.68
-12.73
-15.08
-17.85
-21.08
-24.69
-28.47
-32.01
-34.75
-36.00
-35.16
-31.90
-26.38
-19.29
-11.66
-4.57
1.16
5.13
7.35
8.06
7.56
6.10
3.88
1.07
-2.05
-5.07
-7.52
-8.98
-9.18
-8.12
-6.09
-3.54
-0.97
1.22
2.84
3.90
4.48
4.68
4.52
3.94
2.90
1.40
-0.46
-2.51
-4.58
-6.54
-8.32
-9.95
-11.54
-13.21
-15.07
-17.17
-19.54
-22.16
-25.00
-28.03
-31.09
-33.81
-35.63
-35.87
-33.99
-29.84
-23.76
-16.52
-9.07
-2.24
3.48
7.87
10.95
12.74
13.22
12.38
10.38
7.59
4.60
2.10
0.68
0.60
1.80
3.87
6.25
8.37
9.88
10.66
10.82
10.55
10.02
9.22
8.07
6.43
4.20
1.42
-1.71
-4.93
-7.98
-10.71
-13.17
-15.51
-17.99
-20.79
-24.03
-27.71
-31.71
-35.68
-39.02
-40.94
-40.61
-37.46
-31.43
-23.11
-13.57
-4.09
4.27
10.86
15.53
18.50
20.11
20.68
20.47
19.64
18.35
16.84
15.40
14.30
13.79
13.91
14.58
15.55
16.54
17.33
17.78
17.88
17.63
17.06
16.16
14.89
13.22
11.16
8.71
5.93
2.93
-0.14
-3.09
-5.72
-7.95
-9.80
-11.43
-13.06
-15.01
-17.52
-20.75
-24.57
-28.57
-31.95
-33.67
-32.77
-28.65
-21.41
-11.89
-1.43
8.52
16.86
23.04
27.06
29.26
30.07
29.90
29.05
27.85
26.64
25.73
25.33
25.46
25.94
26.47
26.77
26.71
26.36
25.93
25.63
25.60
25.72
25.71
25.22
23.94
21.76
18.84
15.47
12.03
8.80
5.87
3.14
0.37
-2.73
-6.26
-10.14
-14.06
-17.65
-20.66
-23.08
-25.15
-27.32
-30.06
-33.68
-38.23
-43.36
-48.30
-51.97
-53.19
-51.01
-45.10
-35.90
-24.60
-12.78
-1.95
6.89
13.36
17.66
20.24
21.57
22.04
21.93
21.47
20.90
20.48
20.42
20.86
21.78
23.10
24.59
26.07
27.36
28.43
29.32
30.08
30.68
30.92
30.47
29.04
26.49
22.97
18.91
14.82
11.08
7.82
4.89
1.96
-1.25
-4.86
-8.74
-12.57
-16.01
-18.86
-21.15
-23.20
-25.48
-28.43
-32.27
-36.81
-41.40
-45.02
-46.59
-45.22
-40.49
-32.69
-22.63
-11.54
-0.70
8.78
16.19
21.27
24.10
25.02
24.47
22.88
20.67
18.22
15.87
13.94
12.70
12.32
12.75
13.81
15.14
16.41
17.35
17.84
17.84
17.35
16.36
14.83
12.72
10.11
7.15
4.11
1.23
-1.33
-3.59
-5.69
-7.81
-10.08
-12.54
-15.10
-17.66
-20.12
-22.49
-24.92
-27.63
-30.82
-34.54
-38.55
-42.21
-44.60
-44.73
-41.85
-35.76
-26.93
-16.41
-5.51
4.56
12.92
19.16
23.26
25.44
26.07
25.51
24.10
22.23
20.26
18.55
17.40
16.96
17.23
18.06
19.25
20.53
21.71
22.59
22.97
22.70
21.70
19.97
17.61
14.80
11.72
8.51
5.30
2.18
-0.79
-3.60
-6.31
-9.06
-11.97
-15.05
-18.17
-21.14
-23.75
-25.91
-27.71
-29.43
-31.45
-34.16
-37.80
-42.28
-47.05
-51.09
-53.12
-51.98
-47.05
-38.53
-27.45
-15.36
-3.87
5.82
13.16
18.21
21.40
23.20
23.97
23.89
23.04
21.56
19.73
17.90
16.44
15.54
15.17
15.11
15.13
15.10
14.99
14.87
14.74
14.48
13.87
12.67
10.73
8.06
4.81
1.19
-2.57
-6.27
-9.76
-12.90
-15.60
-17.79
-19.44
-20.64
-21.55
-22.41
-23.44
-24.79
-26.40
-28.08
-29.56
-30.61
-31.16
-31.34
-31.39
-31.58
-32.18
-33.32
-34.91
-36.58
-37.53
-36.71
-32.98
-25.59
-14.52
-0.65
14.48
29.05
41.56
51.13
57.63
61.48
63.28
63.54
62.60
60.63
57.79
54.36
50.70
47.22
44.23
41.84
40.01
38.59
37.49
36.64
36.03
35.54
34.97
34.01
32.38
29.97
26.87
23.28
19.44
15.56
11.75
8.14
4.84
1.90
-0.67
-2.98
-5.22
-7.56
-10.11
-12.90
-15.89
-18.96
-21.98
-24.78
-27.25
-29.40
-31.44
-33.80
-36.98
-41.32
-46.79
-52.77
-58.12
-61.44
-61.41
-57.29
-49.14
-37.87
-24.93
-11.95
-0.25
9.37
16.65
21.69
24.73
26.02
25.83
24.47
22.38
20.05
17.98
16.57
16.03
16.38
17.52
19.20
21.16
23.12
24.89
26.33
27.32
27.76
27.49
26.35
24.24
21.19
17.37
13.14
8.93
5.07
1.77
-0.96
-3.32
-5.58
-8.05
-10.94
-14.28
-17.90
-21.54
-24.91
-27.84
-30.40
-32.85
-35.52
-38.77
-42.78
-47.53
-52.66
-57.51
-61.10
-62.37
-60.36
-54.54
-45.04
-32.68
-18.84
-5.09
7.17
17.02
24.06
28.44
30.63
31.20
30.71
29.59
28.14
26.62
25.28
24.41
24.25
24.89
26.22
27.97
29.84
31.58
33.10
34.33
35.20
35.52
35.04
33.54
31.04
27.79
24.22
20.76
17.71
15.08
12.71
10.30
7.63
4.70
1.68
-1.17
-3.69
-5.88
-8.00
-10.37
-13.20
-16.53
-20.13
-23.68
-26.89
-29.63
-32.01
-34.34
-37.05
-40.59
-45.30
-51.14
-57.61
-63.64
-67.78
-68.51
-64.81
-56.41
-44.02
-29.12
-13.53
1.03
13.32
22.72
29.17
32.99
34.71
34.88
34.05
32.76
31.44
30.42
29.86
29.75
30.01
30.48
31.06
31.73
32.48
33.26
33.97
34.43
34.43
33.79
32.39
30.27
27.52
24.39
21.14
18.03
15.20
12.65
10.25
7.81
5.22
2.46
-0.27
-2.75
-4.82
-6.52
-8.11
-9.99
-12.49
-15.75
-19.68
-23.94
-28.20
-32.19
-35.81
-39.08
-42.08
-44.94
-47.82
-50.89
-54.15
-57.36
-59.81
-60.46
-58.15
-52.09
-42.20
-29.24
-14.63
-0.03
13.12
23.84
31.68
36.67
39.09
39.42
38.17
35.93
33.30
30.83
28.98
28.04
28.09
28.99
30.49
32.24
33.96
35.42
36.54
37.28
37.64
37.61
37.13
36.13
34.54
32.34
29.54
26.26
22.70
19.09
15.60
12.32
9.19
6.11
2.94
-0.39
-3.90
-7.55
-11.33
-15.25
-19.25
-23.24
-27.06
-30.54
-33.57
-36.18
-38.60
-41.16
-44.24
-47.99
-52.24
-56.30
-59.07
-59.28
-55.89
-48.55
-37.72
-24.65
-10.94
1.87
12.72
21.15
27.16
31.03
33.06
33.50
32.60
30.70
28.21
25.68
23.59
22.23
21.74
21.98
22.70
23.62
24.56
25.41
26.17
26.78
27.14
27.06
26.33
24.78
22.36
19.14
15.35
11.33
7.47
4.08
1.34
-0.87
-2.86
-5.03
-7.65
-10.75
-14.09
-17.32
-20.11
-22.41
-24.38
-26.32
-28.59
-31.44
-35.00
-39.16
-43.56
-47.50
-50.03
-50.12
-46.96
-40.32
-30.63
-18.97
-6.72
4.72
14.31
21.53
26.32
29.01
30.06
29.86
28.72
26.81
24.28
21.34
18.36
15.75
13.92
13.07
13.17
13.94
14.96
15.86
16.34
16.26
15.64
14.52
12.94
10.96
8.61
5.90
2.86
-0.47
-4.03
-7.78
-11.59
-15.35
-18.90
-22.10
-24.94
-27.48
-29.90
-32.48
-35.47
-38.95
-42.69
-46.11
-48.28
-48.20
-45.12
-38.81
-29.68
-18.74
-7.25
3.54
12.69
19.67
24.38
27.00
27.89
27.46
26.06
23.97
21.42
18.66
16.05
13.96
12.73
12.46
12.99
13.94
14.86
15.40
15.43
14.93
13.99
12.64
10.86
8.63
5.92
2.77
-0.73
-4.46
-8.27
-12.00
-15.49
-18.68
-21.61
-24.46
-27.44
-30.77
-34.54
-38.65
-42.80
-46.42
-48.72
-48.84
-46.08
-40.12
-31.27
-20.40
-8.74
2.42
12.10
19.73
25.19
28.67
30.51
31.08
30.71
29.63
28.01
26.00
23.79
21.64
19.88
18.77
18.41
18.64
19.11
19.41
19.25
18.53
17.35
15.88
14.22
12.33
10.07
7.26
3.84
-0.07
-4.21
-8.31
-12.10
-15.47
-18.44
-21.13
-23.72
-26.45
-29.55
-33.22
-37.49
-42.05
-46.16
-48.72
-48.54
-44.74
-37.13
-26.40
-13.91
-1.34
9.85
18.77
25.16
29.28
31.61
32.61
32.62
31.89
30.66
29.19
27.76
26.58
25.76
25.27
24.98
24.75
24.49
24.19
23.88
23.56
23.19
22.60
21.56
19.88
17.47
14.39
10.88
7.26
3.78
0.59
-2.37
-5.27
-8.26
-11.45
-14.79
-18.09
-21.16
-23.88
-26.30
-28.67
-31.32
-34.56
-38.50
-42.86
-46.96
-49.81
-50.31
-47.63
-41.45
-32.13
-20.68
-8.45
3.19
13.16
20.87
26.20
29.38
30.78
30.81
29.81
28.13
26.15
24.29
22.96
22.44
22.75
23.64
24.71
25.54
25.93
25.95
25.80
25.71
25.70
25.54
24.88
23.41
21.05
17.98
14.54
11.09
7.92
5.11
2.63
0.37
-1.85
-4.18
-6.71
-9.44
-12.27
-15.07
-17.69
-20.09
-22.32
-24.58
-27.14
-30.28
-34.13
-38.53
-42.93
-46.38
-47.75
-46.02
-40.70
-32.06
-21.08
-9.22
2.08
11.73
19.18
24.37
27.54
29.03
29.20
28.37
26.86
25.00
23.10
21.42
20.14
19.38
19.16
19.45
20.15
21.09
22.07
22.87
23.32
23.30
22.73
21.63
20.05
18.09
15.84
13.44
11.01
8.62
6.33
4.14
2.05
0.05
-1.87
-3.71
-5.53
-7.37
-9.31
-11.40
-13.67
-16.04
-18.42
-20.70
-22.86
-24.96
-27.18
-29.72
-32.75
-36.25
-39.89
-43.01
-44.67
-43.93
-40.18
-33.38
-24.19
-13.77
-3.43
5.73
13.07
18.40
21.87
23.74
24.31
23.79
22.41
20.42
18.03
15.51
13.15
11.25
10.09
9.80
10.25
11.07
11.72
11.75
10.98
9.51
7.66
5.74
3.93
2.24
0.59
-1.08
-2.72
-4.20
-5.39
-6.21
-6.68
-6.96
-7.29
-7.94
-9.09
-10.72
-12.59
-14.27
-15.40
-15.83
-15.77
-15.74
-16.36
-18.09
-21.12
-25.25
-29.89
-34.15
-36.99
-37.43
-34.80
-29.02
-20.64
-10.73
-0.55
8.77
16.42
22.03
25.57
27.21
27.24
25.97
23.74
20.88
17.75
14.72
12.15
10.34
9.43
9.33
9.81
10.56
11.32
11.99
12.55
13.07
13.51
13.74
13.55
12.76
11.30
9.22
6.73
4.08
1.53
-0.75
-2.71
-4.46
-6.22
-8.22
-10.64
-13.49
-16.58
-19.60
-22.23
-24.26
-25.71
-26.85
-28.10
-29.94
-32.65
-36.29
-40.47
-44.41
-47.10
-47.51
-44.91
-39.16
-30.72
-20.58
-9.94
0.04
8.54
15.15
19.82
22.71
24.05
24.05
22.93
20.94
18.42
15.82
13.59
12.12
11.58
11.95
13.03
14.53
16.14
17.65
18.89
19.76
20.23
20.28
19.93
19.18
17.95
16.13
13.66
10.58
7.09
3.51
0.14
-2.80
-5.34
-7.67
-10.06
-12.64
-15.37
-18.04
-20.43
-22.44
-24.16
-25.90
-28.00
-30.71
-34.11
-38.02
-42.03
-45.52
-47.77
-48.08
-45.85
-40.80
-33.13
-23.48
-12.83
-2.29
7.19
15.03
20.99
25.16
27.69
28.78
28.57
27.25
25.08
22.46
19.93
18.06
17.28
17.79
19.45
21.85
24.49
26.89
28.80
30.17
31.09
31.64
31.78
31.35
30.14
28.03
25.10
21.59
17.86
14.23
10.87
7.74
4.62
1.25
-2.56
-6.80
-11.23
-15.44
-19.02
-21.71
-23.57
-24.95
-26.47
-28.75
-32.19
-36.79
-42.01
-46.84
-50.04
-50.43
-47.27
-40.51
-30.80
-19.36
-7.62
3.12
11.96
18.47
22.65
24.76
25.14
24.20
22.34
19.95
17.44
15.18
13.45
12.44
12.20
12.70
13.79
15.31
17.05
18.80
20.32
21.38
21.75
21.25
19.86
17.69
14.98
12.01
9.01
6.01
2.95
-0.33
-3.88
-7.64
-11.42
-14.99
-18.17
-20.93
-23.41
-25.88
-28.67
-32.09
-36.16
-40.52
-44.30
-46.34
-45.53
-41.19
-33.37
-22.94
-11.23
0.32
10.59
18.95
25.21
29.45
31.81
32.43
31.47
29.23
26.17
22.87
19.89
17.62
16.24
15.72
15.85
16.48
17.46
18.74
20.22
21.71
22.89
23.35
22.73
20.91
18.03
14.48
10.73
7.17
3.95
1.00
-1.93
-5.07
-8.56
-12.34
-16.24
-20.02
-23.46
-26.45
-29.04
-31.49
-34.16
-37.42
-41.35
-45.58
-49.27
-51.21
-50.24
-45.64
-37.37
-26.18
-13.34
-0.30
11.65
21.64
29.24
34.44
37.42
38.51
38.05
36.42
34.00
31.24
28.63
26.62
25.53
25.47
26.31
27.71
29.24
30.51
31.22
31.28
30.70
29.56
27.93
25.85
23.31
20.31
16.88
13.14
9.25
5.46
2.00
-0.96
-3.43
-5.55
-7.57
-9.71
-12.13
-14.79
-17.57
-20.26
-22.72
-24.96
-27.11
-29.42
-32.17
-35.61
-39.88
-44.91
-50.26
-55.07
-58.14
-58.17
-54.18
-45.90
-33.99
-19.89
-5.45
7.64
18.29
26.15
31.48
34.83
36.71
37.40
37.02
35.70
33.73
31.59
29.80
28.77
28.59
29.15
30.17
31.40
32.65
33.80
34.72
35.18
34.92
33.75
31.66
28.86
25.67
22.41
19.27
16.27
13.32
10.33
7.26
4.17
1.15
-1.73
-4.50
-7.19
-9.89
-12.62
-15.30
-17.82
-20.10
-22.16
-24.17
-26.40
-29.13
-32.59
-36.91
-42.04
-47.76
-53.49
-58.31
-60.99
-60.30
-55.44
-46.41
-34.09
-20.10
-6.28
5.82
15.33
22.07
26.41
28.92
30.14
30.42
29.99
29.04
27.80
26.57
25.67
25.33
25.63
26.44
27.56
28.72
29.76
30.59
31.17
31.46
31.34
30.65
29.31
27.34
24.88
22.17
19.39
16.65
13.92
11.09
8.02
4.69
1.24
-2.13
-5.12
-7.57
-9.48
-11.02
-12.50
-14.15
-16.11
-18.30
-20.57
-22.73
-24.73
-26.63
-28.65
-31.06
-34.11
-37.98
-42.57
-47.53
-52.10
-55.23
-55.76
-52.75
-45.81
-35.35
-22.50
-8.86
3.91
14.54
22.46
27.70
30.75
32.20
32.51
31.96
30.71
28.98
27.10
25.53
24.62
24.55
25.19
26.26
27.42
28.49
29.39
30.18
30.84
31.23
31.11
30.24
28.52
26.06
23.17
20.19
17.41
14.97
12.84
10.90
8.98
6.91
4.55
1.85
-1.14
-4.20
-7.04
-9.35
-11.00
-12.12
-13.03
-14.18
-15.88
-18.25
-21.14
-24.22
-27.19
-29.86
-32.19
-34.28
-36.34
-38.62
-41.36
-44.68
-48.45
-52.14
-54.83
-55.37
-52.76
-46.55
-37.01
-25.21
-12.61
-0.65
9.60
17.60
23.26
26.73
28.27
28.18
26.83
24.68
22.30
20.20
18.77
18.19
18.45
19.36
20.69
22.20
23.70
25.09
26.26
27.16
27.70
27.81
27.44
26.52
25.06
23.09
20.70
18.05
15.32
12.68
10.28
8.13
6.16
4.23
2.20
0.04
-2.11
-4.08
-5.78
-7.22
-8.61
-10.22
-12.25
-14.72
-17.43
-20.06
-22.33
-24.13
-25.58
-26.98
-28.68
-30.98
-34.09
-38.03
-42.64
-47.45
-51.66
-54.18
-53.94
-50.20
-42.89
-32.72
-20.95
-9.08
1.70
10.60
17.37
22.05
24.84
26.00
25.79
24.57
22.76
20.83
19.19
18.12
17.74
18.01
18.74
19.68
20.66
21.59
22.51
23.48
24.51
25.43
25.97
25.80
24.72
22.77
20.19
17.34
14.58
12.09
9.87
7.74
5.54
3.14
0.64
-1.76
-3.86
-5.51
-6.79
-7.94
-9.23
-10.88
-12.91
-15.22
-17.60
-19.85
-21.89
-23.75
-25.56
-27.50
-29.76
-32.58
-36.07
-40.10
-44.21
-47.53
-48.97
-47.53
-42.64
-34.50
-24.01
-12.56
-1.57
7.86
15.23
20.47
23.83
25.56
25.87
24.97
23.13
20.76
18.34
16.34
15.07
14.67
15.10
16.22
17.79
19.56
21.29
22.76
23.80
24.30
24.17
23.37
21.89
19.82
17.33
14.70
12.19
9.98
8.07
6.29
4.49
2.52
0.37
-1.85
-4.02
-6.06
-7.94
-9.71
-11.43
-13.17
-14.99
-16.91
-18.93
-20.99
-23.06
-25.14
-27.31
-29.78
-32.72
-36.27
-40.30
-44.37
-47.72
-49.38
-48.43
-44.34
-37.14
-27.53
-16.64
-5.79
3.94
11.85
17.75
21.69
23.96
24.79
24.46
23.25
21.54
19.68
18.04
16.85
16.24
16.24
16.82
17.90
19.33
20.92
22.43
23.64
24.34
24.43
23.91
22.78
21.16
19.14
16.82
14.32
11.74
9.12
6.48
3.79
1.06
-1.64
-4.18
-6.41
-8.18
-9.48
-10.44
-11.38
-12.63
-14.43
-16.81
-19.54
-22.30
-24.80
-26.92
-28.77
-30.65
-32.92
-35.81
-39.36
-43.22
-46.70
-48.81
-48.56
-45.20
-38.56
-29.16
-18.08
-6.66
3.89
12.70
19.38
23.90
26.42
27.18
26.48
24.65
22.08
19.29
16.77
15.00
14.29
14.75
16.25
18.47
20.95
23.28
25.10
26.22
26.57
26.21
25.25
23.88
22.24
20.43
18.49
16.40
14.10
11.57
8.78
5.75
2.59
-0.52
-3.35
-5.67
-7.36
-8.50
-9.41
-10.48
-12.10
-14.37
-17.17
-20.16
-23.05
-25.70
-28.23
-30.89
-33.94
-37.49
-41.39
-45.13
-47.94
-48.85
-47.02
-42.01
-33.97
-23.67
-12.33
-1.24
8.53
16.33
21.92
25.33
26.79
26.59
25.13
22.88
20.42
18.28
16.87
16.46
17.06
18.49
20.45
22.55
24.46
25.99
27.05
27.61
27.68
27.24
26.29
24.90
23.22
21.43
19.63
17.80
15.78
13.42
10.67
7.69
4.75
2.13
-0.04
-1.76
-3.18
-4.47
-5.84
-7.46
-9.51
-12.04
-14.96
-18.09
-21.15
-23.94
-26.43
-28.68
-30.93
-33.47
-36.57
-40.28
-44.29
-47.83
-49.76
-48.89
-44.40
-36.28
-25.40
-13.26
-1.45
8.77
16.73
22.35
25.83
27.52
27.70
26.68
24.80
22.51
20.29
18.61
17.78
17.91
18.86
20.35
22.01
23.59
24.96
26.07
26.91
27.37
27.29
26.55
25.15
23.27
21.18
19.08
17.06
15.00
12.70
10.03
7.03
3.92
1.01
-1.45
-3.37
-4.85
-6.15
-7.57
-9.29
-11.39
-13.78
-16.32
-18.90
-21.44
-23.93
-26.40
-28.92
-31.66
-34.82
-38.52
-42.56
-46.23
-48.42
-47.91
-43.84
-36.12
-25.59
-13.70
-2.01
8.21
16.28
22.04
25.62
27.29
27.33
26.07
23.94
21.44
19.13
17.48
16.81
17.21
18.54
20.43
22.43
24.14
25.36
26.07
26.42
26.56
26.49
26.14
25.35
24.00
22.04
19.55
16.62
13.43
10.11
6.84
3.77
1.03
-1.35
-3.43
-5.34
-7.22
-9.15
-11.14
-13.17
-15.20
-17.23
-19.31
-21.55
-24.05
-26.94
-30.26
-34.00
-38.01
-41.88
-45.00
-46.54
-45.70
-41.92
-35.14
-25.93
-15.29
-4.47
5.41
13.60
19.76
23.89
26.17
26.87
26.25
24.65
22.47
20.18
18.25
17.03
16.70
17.25
18.49
20.14
21.97
23.75
25.31
26.50
27.13
27.05
26.16
24.47
22.16
19.50
16.80
14.28
12.03
9.94
7.88
5.70
3.37
0.98
-1.30
-3.29
-4.90
-6.23
-7.47
-8.92
-10.82
-13.24
-16.10
-19.13
-22.06
-24.67
-26.95
-29.05
-31.26
-33.91
-37.21
-41.16
-45.35
-49.02
-51.10
-50.49
-46.46
-38.92
-28.60
-16.83
-5.18
5.03
12.99
18.54
21.93
23.59
23.95
23.31
21.96
20.22
18.45
17.07
16.40
16.60
17.61
19.17
20.94
22.67
24.19
25.48
26.50
27.12
27.16
26.41
24.83
22.58
20.02
17.52
15.34
13.50
11.79
10.02
8.02
5.80
3.48
1.21
-0.89
-2.81
-4.61
-6.39
-8.28
-10.36
-12.66
-15.10
-17.59
-20.03
-22.39
-24.70
-27.02
-29.47
-32.19
-35.32
-38.94
-42.83
-46.40
-48.65
-48.43
-44.91
-37.92
-28.16
-16.94
-5.80
4.00
11.83
17.55
21.40
23.71
24.73
24.65
23.69
22.17
20.55
19.25
18.57
18.61
19.27
20.33
21.59
22.91
24.24
25.51
26.58
27.25
27.30
26.60
25.22
23.35
21.24
19.13
17.11
15.21
13.39
11.59
9.71
7.68
5.47
3.11
0.74
-1.45
-3.32
-4.85
-6.19
-7.59
-9.31
-11.49
-14.11
-17.00
-19.92
-22.62
-24.98
-27.00
-28.87
-30.91
-33.48
-36.83
-40.96
-45.40
-49.30
-51.49
-50.88
-46.80
-39.23
-28.93
-17.21
-5.56
4.75
12.92
18.76
22.46
24.42
24.98
24.44
23.09
21.30
19.54
18.27
17.86
18.41
19.71
21.40
23.10
24.55
25.70
26.63
27.43
28.10
28.47
28.31
27.42
25.71
23.31
20.48
17.54
14.78
12.38
10.38
8.75
7.39
6.17
4.96
3.60
2.01
0.17
-1.81
-3.78
-5.63
-7.36
-9.14
-11.15
-13.52
-16.24
-19.08
-21.76
-24.04
-25.90
-27.56
-29.38
-31.78
-35.05
-39.19
-43.83
-48.18
-51.17
-51.69
-48.96
-42.77
-33.67
-22.74
-11.33
-0.71
8.28
15.21
20.06
23.02
24.39
24.49
23.68
22.30
20.72
19.24
18.15
17.64
17.79
18.53
19.68
20.96
22.12
23.00
23.54
23.78
23.74
23.42
22.76
21.66
20.13
18.24
16.21
14.26
12.52
10.96
9.43
7.67
5.51
2.97
0.27
-2.24
-4.24
-5.61
-6.49
-7.24
-8.28
-9.92
-12.26
-15.19
-18.43
-21.62
-24.53
-27.04
-29.20
-31.23
-33.43
-36.12
-39.48
-43.45
-47.51
-50.79
-52.17
-50.65
-45.74
-37.69
-27.44
-16.33
-5.65
3.66
11.19
16.88
20.89
23.35
24.41
24.27
23.23
21.71
20.20
19.15
18.86
19.45
20.77
22.52
24.31
25.82
26.92
27.63
28.04
28.14
27.81
26.85
25.18
22.92
20.40
17.99
15.96
14.30
12.81
11.22
9.35
7.18
4.80
2.40
0.19
-1.71
-3.26
-4.55
-5.81
-7.35
-9.43
-12.14
-15.34
-18.76
-22.02
-24.90
-27.34
-29.51
-31.69
-34.24
-37.41
-41.26
-45.53
-49.58
-52.44
-53.01
-50.43
-44.39
-35.29
-24.18
-12.49
-1.58
7.57
14.46
19.08
21.73
22.84
22.86
22.19
21.16
20.09
19.26
18.89
19.16
20.14
21.71
23.66
25.65
27.40
28.68
29.40
29.55
29.15
28.21
26.72
24.72
22.35
19.79
17.26
14.95
12.90
11.04
9.20
7.25
5.11
2.87
0.67
-1.33
-3.06
-4.57
-6.07
-7.77
-9.88
-12.46
-15.40
-18.50
-21.47
-24.13
-26.44
-28.59
-30.92
-33.85
-37.65
-42.24
-47.15
-51.45
-53.97
-53.65
-49.82
-42.50
-32.41
-20.79
-9.05
1.56
10.22
16.66
20.97
23.49
24.62
24.75
24.22
23.40
22.64
22.25
22.40
23.09
24.19
25.48
26.79
27.99
29.02
29.89
30.57
30.99
31.01
30.50
29.33
27.49
25.09
22.39
19.68
17.20
15.06
13.18
11.41
9.57
7.63
5.62
3.62
1.65
-0.36
-2.53
-4.96
-7.66
-10.55
-13.47
-16.30
-18.96
-21.40
-23.63
-25.74
-27.92
-30.43
-33.60
-37.60
-42.21
-46.69
-49.92
-50.69
-48.12
-42.04
-33.05
-22.34
-11.26
-0.97
7.78
14.69
19.75
23.06
24.76
24.96
23.89
21.88
19.47
17.26
15.83
15.49
16.29
17.94
19.98
21.91
23.40
24.29
24.56
24.30
23.62
22.59
21.24
19.55
17.47
14.99
12.16
9.15
6.23
3.64
1.49
-0.31
-2.03
-3.99
-6.38
-9.17
-12.14
-14.97
-17.41
-19.42
-21.14
-22.88
-24.99
-27.78
-31.46
-35.91
-40.70
-44.94
-47.49
-47.20
-43.35
-35.94
-25.78
-14.26
-2.91
7.06
15.03
20.91
24.92
27.37
28.50
28.54
27.74
26.47
25.16
24.22
23.90
24.25
25.11
26.21
27.27
28.11
28.63
28.82
28.71
28.31
27.60
26.53
25.05
23.17
20.89
18.28
15.46
12.54
9.66
6.88
4.29
1.87
-0.38
-2.53
-4.67
-6.89
-9.31
-11.96
-14.77
-17.58
-20.20
-22.55
-24.67
-26.78
-29.14
-32.04
-35.65
-39.99
-44.89
-49.90
-54.22
-56.81
-56.57
-52.70
-45.06
-34.35
-21.91
-9.41
1.69
10.49
16.75
20.79
23.16
24.46
25.09
25.36
25.50
25.66
25.96
26.42
26.94
27.39
27.69
27.83
27.90
28.03
28.32
28.74
29.18
29.45
29.37
28.74
27.39
25.30
22.61
19.60
16.63
14.02
11.88
10.09
8.42
6.66
4.75
2.75
0.79
-1.03
-2.75
-4.50
-6.42
-8.60
-10.99
-13.54
-16.14
-18.74
-21.30
-23.86
-26.50
-29.39
-32.77
-36.81
-41.48
-46.37
-50.70
-53.38
-53.33
-49.83
-42.81
-32.92
-21.42
-9.80
0.64
9.04
15.13
19.14
21.55
22.86
23.46
23.54
23.19
22.49
21.64
20.92
20.64
20.98
21.91
23.19
24.45
25.40
25.90
26.04
25.93
25.65
25.10
24.08
22.41
20.02
17.06
13.79
10.51
7.46
4.78
2.50
0.62
-0.98
-2.53
-4.27
-6.43
-9.11
-12.18
-15.34
-18.30
-20.84
-23.02
-25.08
-27.39
-30.34
-34.13
-38.69
-43.51
-47.71
-50.17
-49.87
-46.18
-39.16
-29.56
-18.63
-7.76
1.90
9.62
15.16
18.68
20.52
21.08
20.76
19.85
18.67
17.51
16.65
16.33
16.63
17.47
18.61
19.77
20.72
21.40
21.83
22.08
22.17
22.00
21.41
20.22
18.27
15.54
12.16
8.44
4.81
1.69
-0.67
-2.31
-3.53
-4.80
-6.50
-8.82
-11.70
-14.93
-18.23
-21.38
-24.33
-27.09
-29.81
-32.72
-36.05
-40.00
-44.49
-49.06
-52.87
-54.79
-53.80
-49.31
-41.44
-31.02
-19.38
-7.89
2.32
10.63
16.85
21.19
23.89
25.27
25.63
25.30
24.68
24.17
24.07
24.52
25.45
26.65
27.89
28.98
29.78
30.26
30.37
30.10
29.45
28.48
27.26
25.83
24.22
22.42
20.37
18.03
15.35
12.33
9.07
5.78
2.73
0.20
-1.67
-3.01
-4.16
-5.55
-7.53
-10.18
-13.38
-16.87
-20.37
-23.67
-26.69
-29.39
-31.89
-34.39
-37.19
-40.51
-44.32
-48.10
-50.91
-51.62
-49.23
-43.33
-34.28
-23.09
-11.16
0.09
9.57
16.73
21.55
24.37
25.67
25.90
25.39
24.41
23.24
22.22
21.70
21.93
22.90
24.35
25.86
27.02
27.55
27.44
26.84
25.97
24.98
23.90
22.62
20.96
18.81
16.15
13.11
9.93
6.82
3.90
1.15
-1.50
-4.13
-6.75
-9.32
-11.74
-13.95
-15.93
-17.71
-19.40
-21.24
-23.50
-26.49
-30.38
-35.11
-40.29
-45.19
-48.87
-50.38
-48.98
-44.38
-36.82
-27.10
-16.41
-6.00
3.13
10.44
15.86
19.63
22.07
23.40
23.73
23.14
21.85
20.17
18.46
17.08
16.23
15.98
16.36
17.31
18.74
20.48
22.25
23.66
24.35
24.01
22.49
19.88
16.48
12.73
9.07
5.80
3.02
0.55
-1.90
-4.61
-7.71
-11.14
-14.71
-18.18
-21.43
-24.44
-27.36
-30.38
-33.72
-37.53
-41.74
-45.96
-49.46
-51.29
-50.50
-46.44
-39.06
-28.98
-17.35
-5.56
5.08
13.72
20.01
24.08
26.33
27.19
27.03
26.12
24.75
23.23
22.00
21.41
21.69
22.76
24.31
25.90
27.18
27.95
28.20
28.03
27.51
26.59
25.18
23.13
20.38
17.04
13.39
9.85
6.79
4.34
2.38
0.53
-1.63
-4.38
-7.72
-11.36
-14.86
-17.88
-20.27
-22.19
-24.00
-26.18
-29.11
-33.06
-37.93
-43.29
-48.30
-51.85
-52.81
-50.36
-44.22
-34.84
-23.26
-10.88
0.89
10.99
18.84
24.37
27.89
29.80
30.50
30.31
29.44
28.18
26.85
25.80
25.29
25.41
26.04
26.93
27.84
28.58
29.12
29.49
29.71
29.75
29.42
28.46
26.61
23.76
20.03
15.81
11.62
7.96
5.09
2.96
1.23
-0.54
-2.73
-5.48
-8.69
-12.07
-15.30
-18.12
-20.48
-22.51
-24.49
-26.80
-29.76
-33.48
-37.82
-42.20
-45.73
-47.31
-46.00
-41.31
-33.40
-23.14
-11.85
-0.89
8.63
16.07
21.28
24.38
25.64
25.34
23.78
21.38
18.61
16.07
14.22
13.36
13.48
14.34
15.58
16.84
17.91
18.71
19.28
19.65
19.76
19.46
18.57
16.93
14.56
11.61
8.38
5.19
2.28
-0.27
-2.57
-4.81
-7.19
-9.83
-12.75
-15.79
-18.76
-21.43
-23.73
-25.72
-27.65
-29.93
-32.96
-36.93
-41.66
-46.47
-50.23
-51.66
-49.69
-43.86
-34.54
-22.91
-10.57
0.90
10.38
17.39
22.07
24.92
26.48
27.20
27.31
26.91
26.04
24.82
23.44
22.20
21.42
21.28
21.89
23.12
24.73
26.40
27.81
28.69
28.84
28.14
26.61
24.37
21.66
18.75
15.87
13.15
10.59
8.16
5.82
3.55
1.38
-0.71
-2.78
-4.92
-7.26
-9.86
-12.73
-15.74
-18.70
-21.44
-23.84
-25.95
-27.92
-30.03
-32.58
-35.82
-39.86
-44.60
-49.59
-54.00
-56.76
-56.72
-53.03
-45.46
-34.62
-21.83
-8.78
2.96
12.37
19.12
23.46
25.93
27.07
27.24
26.70
25.67
24.47
23.45
22.90
22.94
23.46
24.23
25.02
25.76
26.45
27.20
28.01
28.77
29.24
29.12
28.21
26.48
24.08
21.26
18.35
15.55
12.97
10.58
8.29
5.99
3.65
1.30
-0.97
-3.09
-5.05
-6.93
-8.85
-10.94
-13.24
-15.72
-18.24
-20.65
-22.88
-24.91
-26.89
-29.06
-31.68
-35.01
-39.14
-43.88
-48.65
-52.51
-54.32
-53.02
-48.08
-39.64
-28.60
-16.34
-4.31
6.24
14.65
20.71
24.61
26.68
27.29
26.74
25.34
23.44
21.42
19.72
18.65
18.40
18.96
20.16
21.71
23.30
24.69
25.72
26.28
26.36
25.91
24.93
23.42
21.42
19.02
16.33
13.49
10.59
7.75
5.05
2.52
0.18
-2.03
-4.22
-6.47
-8.86
-11.32
-13.72
-15.91
-17.86
-19.67
-21.54
-23.76
-26.56
-30.07
-34.22
-38.69
-42.86
-45.83
-46.59
-44.30
-38.65
-30.00
-19.37
-8.12
2.42
11.31
18.08
22.71
25.37
26.35
25.88
24.28
21.94
19.32
16.90
15.08
14.09
13.95
14.50
15.49
16.64
17.71
18.59
19.27
19.77
20.10
20.19
19.81
18.74
16.78
13.92
10.40
6.64
3.06
-0.02
-2.51
-4.57
-6.44
-8.36
-10.47
-12.81
-15.29
-17.81
-20.26
-22.57
-24.75
-26.91
-29.30
-32.26
-36.03
-40.61
-45.57
-50.04
-52.84
-52.83
-49.23
-41.96
-31.65
-19.55
-7.17
4.13
13.39
20.15
24.44
26.54
26.88
25.90
24.03
21.75
19.54
17.84
16.97
17.00
17.80
19.03
20.33
21.38
22.03
22.28
22.24
22.02
21.68
21.12
20.15
18.55
16.20
13.22
9.88
6.61
3.68
1.14
-1.23
-3.75
-6.64
-9.84
-13.00
-15.70
-17.68
-19.03
-20.15
-21.65
-24.05
-27.63
-32.29
-37.51
-42.44
-46.01
-47.16
-45.11
-39.59
-30.99
-20.27
-8.78
2.16
11.52
18.71
23.64
26.57
27.88
27.96
27.11
25.56
23.56
21.41
19.46
18.05
17.41
17.58
18.41
19.64
20.93
22.05
22.83
23.17
22.98
22.16
20.61
18.31
15.34
11.89
8.20
4.50
0.95
-2.37
-5.43
-8.23
-10.78
-13.11
-15.28
-17.44
-19.80
-22.55
-25.83
-29.63
-33.76
-37.73
-40.83
-42.12
-40.75
-36.19
-28.51
-18.44
-7.24
3.70
13.21
20.64
25.85
29.10
30.72
31.02
30.23
28.56
26.26
23.68
21.22
19.28
18.13
17.91
18.53
19.74
21.12
22.25
22.76
22.48
21.43
19.79
17.79
15.56
13.12
10.38
7.23
3.69
-0.12
-3.96
-7.59
-10.86
-13.76
-16.42
-19.04
-21.81
-24.91
-28.39
-32.13
-35.79
-38.76
-40.23
-39.45
-35.93
-29.69
-21.35
-11.94
-2.63
5.61
12.18
16.87
19.72
20.85
20.41
18.58
15.68
12.22
8.85
6.19
4.66
4.38
5.15
6.55
8.08
9.38
10.26
10.71
10.82
10.64
10.07
8.94
7.03
4.26
0.81
-2.92
-6.50
-9.59
-12.13
-14.31
-16.49
-19.00
-22.07
-25.80
-30.06
-34.55
-38.62
-41.43
-42.02
-39.65
-34.07
-25.74
-15.66
-5.14
4.60
12.72
18.84
22.96
25.27
26.01
25.38
23.64
21.13
18.32
15.76
13.93
13.12
13.32
14.28
15.51
16.61
17.27
17.43
17.19
16.67
15.90
14.76
13.06
10.60
7.38
3.53
-0.63
-4.75
-8.58
-12.00
-15.08
-17.99
-20.94
-24.13
-27.74
-31.83
-36.20
-40.31
-43.22
-43.85
-41.27
-35.10
-25.77
-14.44
-2.65
8.13
16.89
23.23
27.28
29.43
30.10
29.67
28.45
26.79
25.08
23.67
22.84
22.65
23.00
23.60
24.17
24.51
24.50
24.12
23.41
22.37
21.00
19.31
17.31
15.04
12.56
9.85
6.91
3.73
0.37
-3.01
-6.17
-8.96
-11.34
-13.43
-15.47
-17.68
-20.28
-23.44
-27.26
-31.72
-36.49
-40.88
-43.81
-44.11
-40.97
-34.28
-24.81
-13.90
-3.10
6.38
13.86
19.25
22.83
24.96
26.00
26.20
25.74
24.81
23.69
22.64
21.92
21.69
21.98
22.63
23.38
23.99
24.34
24.42
24.31
24.04
23.53
22.58
21.02
18.79
16.02
13.02
10.12
7.59
5.48
3.66
1.88
-0.13
-2.55
-5.38
-8.48
-11.63
-14.53
-17.00
-19.01
-20.68
-22.31
-24.28
-26.92
-30.44
-34.78
-39.56
-44.08
-47.35
-48.31
-46.18
-40.65
-32.13
-21.64
-10.56
-0.23
8.37
14.83
19.23
21.94
23.37
23.80
23.41
22.35
20.86
19.30
18.07
17.50
17.70
18.55
19.73
20.91
21.85
22.44
22.69
22.62
22.19
21.35
20.01
18.14
15.77
13.03
10.06
7.08
4.26
1.71
-0.53
-2.57
-4.56
-6.68
-9.02
-11.54
-14.09
-16.50
-18.61
-20.39
-21.95
-23.48
-25.22
-27.40
-30.14
-33.42
-37.01
-40.40
-42.88
-43.58
-41.74
-36.95
-29.37
-19.75
-9.29
0.71
9.18
15.55
19.77
22.14
23.09
22.99
22.13
20.74
19.04
17.30
15.84
14.92
14.71
15.27
16.44
17.95
19.43
20.54
21.08
21.00
20.41
19.48
18.35
17.05
15.54
13.78
11.76
9.53
7.20
4.83
2.46
0.13
-2.18
-4.49
-6.81
-9.17
-11.48
-13.65
-15.59
-17.26
-18.75
-20.27
-22.05
-24.25
-26.94
-30.10
-33.72
-37.73
-41.93
-45.82
-48.61
-49.27
-46.98
-41.39
-32.87
-22.46
-11.52
-1.38
7.07
13.39
17.61
19.98
20.85
20.53
19.32
17.59
15.70
14.06
13.02
12.76
13.29
14.37
15.70
16.96
17.96
18.66
19.16
19.55
19.85
19.97
19.72
18.87
17.27
14.94
12.03
8.82
5.62
2.70
0.22
-1.78
-3.41
-4.90
-6.50
-8.39
-10.63
-13.12
-15.66
-18.05
-20.19
-22.11
-23.93
-25.78
-27.79
-30.10
-32.86
-36.14
-39.90
-43.68
-46.64
-47.67
-45.77
-40.42
-31.93
-21.36
-10.19
0.13
8.60
14.85
19.01
21.45
22.57
22.62
21.79
20.23
18.23
16.19
14.54
13.65
13.72
14.67
16.24
18.11
19.98
21.67
23.09
24.17
24.80
24.81
24.04
22.44
20.08
17.18
14.02
10.84
7.84
5.11
2.73
0.67
-1.14
-2.87
-4.70
-6.81
-9.30
-12.15
-15.21
-18.24
-21.00
-23.35
-25.30
-27.04
-28.91
-31.34
-34.69
-39.05
-44.10
-49.03
-52.67
-53.76
-51.40
-45.27
-35.88
-24.38
-12.26
-0.90
8.73
16.19
21.45
24.72
26.24
26.24
24.96
22.79
20.21
17.81
16.11
15.41
15.80
17.10
19.03
21.27
23.59
25.78
27.68
29.10
29.85
29.79
28.83
27.04
24.57
21.63
18.42
15.15
11.97
8.98
6.25
3.74
1.36
-1.03
-3.57
-6.32
-9.26
-12.24
-15.16
-17.88
-20.39
-22.74
-25.07
-27.57
-30.50
-34.11
-38.54
-43.63
-48.77
-52.89
-54.67
-52.97
-47.22
-37.71
-25.55
-12.36
0.25
11.10
19.59
25.71
29.72
31.93
32.60
31.89
30.02
27.39
24.53
22.05
20.44
19.96
20.62
22.20
24.35
