1628960539.00
64.000000
-0.00
-0.00
-0.00
-0.00
-0.00
-0.00
-0.00
-0.00
-0.00
-0.00
0.00
0.01
0.01
-0.00
-0.03
-0.05
-0.05
0.00
0.13
0.36
0.66
1.01
1.37
1.72
2.06
2.40
2.79
3.24
3.80
4.42
5.06
5.66
6.20
6.68
7.15
7.68
8.31
9.14
10.09
11.04
11.88
12.56
13.14
13.76
14.65
15.96
17.91
20.32
22.90
25.38
27.58
29.57
31.68
34.32
37.81
42.54
48.15
54.10
59.83
64.97
69.58
74.14
79.34
85.71
93.76
103.00
112.62
121.73
129.77
136.75
143.30
150.75
157.77
166.64
177.95
191.79
206.97
220.57
228.25
225.36
208.53
176.87
132.76
80.05
23.07
-34.94
-92.44
-149.16
-205.23
-260.37
-313.74
-363.87
-409.83
-450.91
-486.50
-515.74
-537.23
-549.22
-549.96
-538.37
-514.21
-478.67
-433.88
-382.45
-327.02
-269.84
-212.63
-156.66
-102.95
-52.37
-5.90
35.58
71.43
101.35
125.50
144.38
158.69
169.15
176.37
180.75
182.57
182.07
179.51
175.23
169.65
163.18
156.15
148.81
141.30
133.69
126.02
118.33
110.69
103.16
95.80
88.68
81.83
75.25
68.95
62.95
57.25
51.86
46.78
42.03
37.59
33.45
29.61
26.07
22.81
19.83
17.11
14.67
12.48
10.54
8.83
7.35
6.06
4.97
4.05
3.28
2.65
2.12
1.67
1.28
0.92
0.61
0.34
0.15
0.02
-0.05
-0.08
-0.12
-0.17
-0.24
-0.34
-0.41
-0.45
-0.43
-0.37
-0.31
-0.28
-0.34
-0.48
-0.67
-0.82
-0.89
-0.85
-0.74
-0.66
-0.73
-1.03
-1.53
-2.12
-2.61
-2.85
-2.76
-2.45
-2.13
-2.09
-2.50
-3.36
-4.43
-5.38
-5.87
-5.77
-5.26
-4.71
-4.58
-5.18
-6.45
-8.03
-9.37
-10.04
-9.90
-9.21
-8.45
-8.11
-8.44
-9.52
-11.31
-13.73
-16.39
-18.42
-18.45
-15.03
-7.36
4.18
17.80
30.98
41.32
47.45
49.28
47.62
43.62
38.23
32.05
25.51
19.25
13.69
9.19
5.69
2.64
-0.77
-5.35
-11.53
-18.96
-26.27
-31.36
-31.88
-26.25
-14.58
1.12
17.30
30.16
36.97
37.00
31.45
22.73
13.36
4.93
-1.98
-7.55
-12.03
-15.42
-17.39
-17.65
-16.22
-13.70
-11.15
-9.53
-9.30
-10.15
-11.28
-11.94
-11.92
-11.60
-11.86
-13.60
-17.13
-21.90
-26.75
-30.42
-32.08
-31.74
-29.96
-27.89
-27.00
-28.40
-32.51
-38.67
-45.10
-49.18
-48.28
-40.20
-24.52
-2.96
21.18
44.05
62.52
75.13
82.34
83.43
79.55
72.32
63.22
53.31
43.42
34.23
26.31
19.96
14.98
11.15
7.85
4.55
1.11
-2.15
-4.75
-6.53
-7.91
-9.96
-13.65
-19.70
-28.19
-38.39
-49.05
-58.89
-67.16
-73.90
-79.89
-86.23
-94.05
-104.06
-116.01
-128.36
-138.22
-141.93
-136.02
-118.52
-89.83
-53.03
-13.12
24.57
55.91
78.91
93.65
101.48
104.04
102.62
98.11
91.30
83.21
75.03
67.84
62.21
58.03
54.76
51.78
48.72
45.54
42.24
38.64
34.26
28.39
20.52
10.59
-0.87
-12.85
-24.29
-34.41
-43.02
-50.61
-58.23
-67.18
-78.52
-92.48
-107.92
-122.20
-131.58
-132.23
-121.54
-99.31
-67.99
-32.05
3.43
34.32
58.35
75.24
85.98
91.84
93.79
92.44
88.38
82.54
76.20
70.63
66.62
64.20
62.64
60.99
58.51
55.05
50.99
46.89
43.07
39.32
34.84
28.62
19.95
8.75
-4.18
-17.48
-29.72
-39.98
-48.26
-55.38
-62.80
-72.02
-84.00
-98.65
-114.45
-128.48
-136.97
-136.26
-124.10
-100.57
-68.31
-31.72
4.32
35.94
61.13
79.71
92.63
101.07
105.80
107.21
105.59
101.59
96.24
90.83
86.40
83.49
81.98
81.33
80.80
79.82
78.01
75.23
71.46
66.77
61.22
54.94
47.98
40.34
31.87
22.40
11.82
0.28
-11.74
-23.59
-34.60
-44.32
-52.66
-59.90
-66.65
-73.79
-82.33
-93.23
-106.85
-122.39
-137.44
-148.18
-150.34
-140.65
-118.28
-85.31
-46.29
-6.70
28.75
57.21
78.04
92.07
100.74
105.30
106.61
105.28
101.90
97.27
92.22
87.46
83.44
80.27
77.80
75.78
73.97
72.19
70.23
67.85
64.77
60.69
55.43
48.98
41.51
33.31
24.59
15.48
5.97
-4.02
-14.43
-25.01
-35.29
-44.71
-52.87
-59.72
-65.60
-71.26
-77.72
-86.07
-96.98
-110.27
-124.38
-136.33
-142.17
-138.19
-122.29
-95.04
-59.81
-21.83
13.51
42.25
62.76
75.51
82.16
84.40
83.35
79.59
73.59
66.16
58.53
52.08
47.80
45.95
45.98
46.82
47.34
46.78
44.90
41.95
38.40
34.63
30.74
26.41
21.05
14.08
5.19
-5.43
-17.05
-28.56
-38.88
-47.22
-53.41
-57.98
-61.96
-66.60
-73.12
-82.32
-94.32
-108.23
-121.93
-132.20
-135.31
-128.11
-109.26
-80.05
-44.29
-7.27
25.94
51.96
69.73
80.19
85.21
86.50
85.14
81.61
76.36
70.16
64.11
59.34
56.55
55.80
56.49
57.74
58.60
58.36
56.64
53.42
48.95
43.61
37.74
31.47
24.64
16.91
7.94
-2.37
-13.67
-25.29
-36.35
-46.06
-53.97
-60.10
-64.94
-69.34
-74.30
-80.88
-89.82
-101.28
-114.32
-126.69
-134.94
-135.26
-124.69
-102.46
-70.58
-33.45
3.46
35.35
59.39
75.11
83.78
87.38
87.61
85.56
81.83
76.89
71.38
66.08
61.66
58.49
56.51
55.33
54.43
53.30
51.56
49.01
45.56
41.25
36.19
30.55
24.44
17.88
10.78
2.98
-5.66
-15.08
-24.99
-34.83
-43.96
-51.85
-58.34
-63.63
-68.35
-73.39
-79.77
-88.37
-99.58
-112.76
-125.83
-135.32
-137.09
-127.73
-105.98
-73.55
-34.88
4.25
38.59
64.87
82.30
92.03
95.96
95.82
92.70
87.22
79.97
71.81
63.86
57.21
52.53
49.85
48.64
48.02
47.11
45.36
42.63
39.15
35.33
31.47
27.64
23.56
18.76
12.72
5.13
-3.94
-14.04
-24.40
-34.16
-42.67
-49.64
-55.24
-60.03
-64.82
-70.53
-77.97
-87.52
-98.74
-109.93
-118.10
-119.57
-111.11
-91.38
-61.77
-26.28
9.68
41.03
64.53
79.29
86.34
87.52
84.40
78.02
69.04
58.34
47.36
37.87
31.41
28.66
29.05
31.02
32.67
32.56
30.31
26.58
22.62
19.51
17.50
15.86
13.22
8.26
0.38
-9.98
-21.48
-32.49
-41.76
-48.80
-53.94
-58.17
-62.72
-68.74
-77.15
-88.21
-101.27
-114.33
-124.10
-126.67
-118.73
-98.93
-68.77
-32.42
4.62
37.22
62.10
78.31
86.75
89.04
86.69
80.72
72.00
61.66
51.26
42.52
36.67
33.94
33.54
33.99
33.86
32.34
29.50
26.06
22.98
20.82
19.43
17.91
14.99
9.60
1.37
-9.11
-20.48
-31.11
-39.77
-46.05
-50.45
-54.19
-58.75
-65.48
-75.20
-87.81
-101.89
-114.61
-122.11
-120.50
-107.33
-82.69
-49.47
-12.62
22.48
51.63
72.72
85.70
91.73
92.19
88.27
80.92
71.30
60.97
51.70
44.90
41.13
39.84
39.68
39.11
37.16
33.74
29.63
25.93
23.41
21.98
20.67
17.95
12.50
3.86
-7.32
-19.47
-30.76
-39.84
-46.38
-51.09
-55.39
-60.95
-69.15
-80.66
-95.00
-110.27
-123.17
-129.51
-125.49
-109.10
-81.09
-45.14
-6.70
28.74
57.14
76.84
88.22
92.79
92.25
87.95
80.94
72.34
63.52
55.93
50.66
48.01
47.29
47.20
46.40
44.15
40.60
36.57
33.09
30.72
29.16
27.35
23.87
17.63
8.35
-3.27
-15.77
-27.44
-36.99
-44.01
-49.09
-53.63
-59.37
-67.83
-79.64
-94.11
-108.97
-120.68
-125.14
-119.00
-100.83
-71.98
-36.30
0.94
34.63
61.24
79.42
89.62
93.23
91.66
86.05
77.42
66.99
56.40
47.31
40.87
37.33
35.96
35.52
34.81
33.21
30.80
28.06
25.43
22.87
19.81
15.33
8.72
-0.18
-10.74
-21.79
-32.00
-40.49
-47.12
-52.57
-58.17
-65.46
-75.64
-89.00
-104.38
-118.91
-128.49
-128.87
-117.06
-92.75
-58.70
-20.05
17.30
48.54
71.12
84.79
90.89
91.21
87.29
80.24
71.10
61.14
51.85
44.56
39.94
37.72
36.93
36.30
34.97
32.81
30.37
28.35
27.01
25.77
23.37
18.43
10.22
-0.89
-13.49
-25.64
-35.78
-43.24
-48.50
-52.92
-58.30
-66.32
-77.95
-92.96
-109.51
-124.12
-132.33
-129.99
-114.81
-87.44
-51.51
-12.55
23.78
53.29
74.09
86.43
91.77
91.86
88.12
81.64
73.46
64.85
57.15
51.52
48.41
47.39
47.27
46.68
44.74
41.41
37.50
34.11
31.90
30.61
29.01
25.51
18.91
8.93
-3.54
-16.82
-29.14
-39.26
-46.86
-52.61
-57.85
-64.19
-73.01
-85.03
-99.79
-115.33
-128.32
-134.59
-130.39
-113.81
-85.66
-49.59
-11.04
24.55
53.25
73.54
85.96
92.17
93.77
91.83
86.99
79.96
71.95
64.49
58.95
55.88
54.83
54.56
53.68
51.33
47.48
42.91
38.66
35.49
33.39
31.52
28.45
22.84
13.99
2.25
-11.05
-24.11
-35.33
-43.96
-50.25
-55.37
-60.86
-68.24
-78.54
-91.87
-107.08
-121.55
-131.47
-132.79
-122.57
-100.22
-68.00
-30.54
6.72
39.17
64.15
81.12
91.01
95.19
94.86
90.93
84.28
76.14
68.02
61.32
56.88
54.59
53.54
52.46
50.37
47.03
42.99
39.16
36.27
34.36
32.62
29.67
24.20
15.57
4.15
-8.79
-21.48
-32.35
-40.64
-46.65
-51.58
-57.11
-64.85
-75.82
-89.97
-105.89
-120.74
-130.65
-131.66
-121.05
-98.47
-66.45
-29.75
6.11
36.63
59.40
74.23
82.37
85.34
84.29
79.95
73.09
64.89
56.89
50.49
46.44
44.54
43.80
42.99
41.25
38.43
35.05
31.93
29.61
27.93
25.91
22.07
15.19
4.91
-7.91
-21.48
-33.75
-43.31
-49.90
-54.44
-58.62
-64.28
-72.89
-85.08
-100.18
-116.00
-128.90
-134.51
-129.06
-110.88
-81.26
-44.36
-5.90
28.74
55.98
74.71
85.81
91.00
91.91
89.63
84.87
78.40
71.33
64.99
60.47
58.20
57.69
57.74
56.99
54.54
50.32
45.13
40.14
36.33
33.86
32.04
29.46
24.67
16.69
5.53
-7.79
-21.58
-34.04
-43.90
-50.87
-55.69
-59.84
-65.06
-72.82
-83.82
-97.69
-112.71
-125.84
-133.16
-130.90
-116.71
-90.77
-56.15
-17.97
18.15
47.91
69.34
82.76
89.84
92.40
91.69
88.34
82.82
75.99
69.11
63.54
60.19
59.10
59.45
59.86
59.03
56.27
51.80
46.52
41.58
37.75
35.01
32.51
28.94
23.09
14.35
2.98
-10.03
-23.27
-35.33
-45.19
-52.52
-57.71
-61.85
-66.42
-72.97
-82.57
-95.24
-109.56
-122.56
-130.21
-128.51
-114.90
-89.36
-54.83
-16.35
20.46
51.18
73.65
87.99
95.60
98.08
96.50
91.51
83.84
74.78
66.11
59.55
56.03
55.29
55.99
56.42
55.16
51.75
46.72
41.27
36.61
33.33
31.02
28.36
23.75
15.99
5.01
-8.09
-21.44
-33.26
-42.46
-49.07
-53.99
-58.62
-64.42
-72.54
-83.56
-97.09
-111.44
-123.48
-129.29
-125.15
-109.07
-81.76
-46.67
-9.01
25.95
54.31
74.37
86.34
91.44
91.07
86.28
77.94
67.21
55.79
45.73
38.79
35.76
36.08
38.09
39.77
39.67
37.40
33.58
29.33
25.55
22.37
19.01
14.25
7.02
-2.99
-15.09
-27.78
-39.40
-48.70
-55.46
-60.46
-65.22
-71.40
-80.29
-92.33
-106.86
-121.88
-134.17
-139.85
-135.32
-118.62
-90.44
-54.23
-15.33
20.74
49.89
70.40
82.64
88.11
88.42
84.69
77.72
68.48
58.40
49.23
42.53
38.99
38.18
38.77
39.18
38.31
35.94
32.69
29.55
27.19
25.45
23.30
19.24
12.01
1.31
-11.97
-26.04
-38.86
-48.98
-56.02
-60.81
-65.00
-70.60
-79.26
-91.78
-107.55
-124.26
-138.04
-144.31
-139.08
-120.54
-89.90
-51.27
-10.47
26.89
56.87
77.94
90.58
96.26
96.61
92.89
86.24
77.95
69.55
62.55
57.96
55.83
55.27
54.83
53.19
49.82
45.14
40.27
36.38
34.00
32.58
30.66
26.46
18.73
7.32
-6.59
-21.08
-34.13
-44.45
-51.84
-57.21
-62.14
-68.45
-77.63
-90.33
-105.85
-121.83
-134.44
-139.16
-132.20
-112.02
-80.18
-41.10
-0.65
35.65
64.27
84.13
96.09
101.84
102.97
100.48
95.14
87.81
79.79
72.56
67.34
64.55
63.67
63.44
62.45
59.81
55.52
50.42
45.67
42.04
39.40
36.62
32.06
24.34
13.10
-0.75
-15.33
-28.56
-38.99
-46.31
-51.37
-55.81
-61.43
-69.73
-81.40
-95.98
-111.56
-124.85
-131.72
-128.35
-112.59
-85.00
-49.02
-9.95
26.63
56.55
77.86
90.73
96.51
96.77
92.72
85.33
75.74
65.51
56.41
49.89
46.51
45.70
46.05
46.00
44.54
41.57
37.76
34.05
30.94
28.20
24.81
19.48
11.26
0.09
-13.06
-26.47
-38.34
-47.49
-53.83
-58.36
-62.82
-69.06
-78.48
-91.41
-106.76
-121.90
-132.99
-135.80
-127.09
-105.86
-74.02
-36.06
2.31
35.95
61.68
78.70
88.03
91.37
90.25
85.70
78.46
69.55
60.44
52.77
47.86
46.11
46.83
48.53
49.58
48.81
46.03
41.90
37.49
33.62
30.36
26.95
22.14
14.86
4.77
-7.44
-20.32
-32.19
-41.78
-48.73
-53.56
-57.52
-62.13
-68.84
-78.64
-91.63
-106.69
-121.19
-131.33
-132.96
-122.99
-100.74
-68.43
-30.79
6.54
38.70
62.98
79.03
88.15
92.13
92.36
89.61
84.32
77.18
69.38
62.42
57.53
55.17
54.77
55.05
54.60
52.55
48.90
44.38
39.97
36.30
33.28
30.06
25.40
18.27
8.33
-3.82
-16.85
-29.11
-39.27
-46.76
-51.91
-55.81
-59.91
-65.60
-73.99
-85.51
-99.63
-114.51
-126.94
-132.87
-128.53
-111.89
-83.69
-47.57
-8.99
26.51
55.04
75.08
87.31
93.49
95.34
93.98
89.96
83.76
76.25
68.75
62.64
58.86
57.47
57.64
58.04
57.41
55.07
51.18
46.49
41.92
38.04
34.66
30.88
25.48
17.43
6.50
-6.58
-20.26
-32.78
-42.82
-49.99
-54.93
-59.05
-63.99
-71.20
-81.51
-94.84
-109.92
-124.12
-133.70
-134.66
-123.99
-101.00
-67.89
-29.36
8.89
41.89
66.70
82.64
90.68
92.43
89.37
82.67
73.53
63.42
54.07
47.04
43.13
42.13
42.92
43.92
43.77
41.83
38.32
34.05
29.93
26.38
23.06
18.93
12.76
3.73
-8.04
-21.44
-34.73
-46.26
-55.03
-61.09
-65.48
-69.83
-75.90
-85.02
-97.58
-112.49
-127.01
-137.08
-138.35
-127.67
-104.41
-71.00
-32.31
5.92
38.83
63.56
79.54
87.68
89.45
86.19
79.08
69.44
58.97
49.64
43.17
40.36
40.75
42.81
44.64
44.73
42.59
38.76
34.37
30.40
27.09
23.72
19.03
11.82
1.67
-10.80
-24.11
-36.47
-46.50
-53.75
-58.89
-63.44
-69.25
-77.93
-90.14
-105.19
-120.75
-133.11
-137.98
-131.79
-113.01
-82.95
-45.59
-6.43
29.26
57.88
78.14
90.65
96.93
98.43
96.16
90.82
83.32
74.98
67.34
61.63
58.30
56.78
55.90
54.39
51.53
47.41
42.79
38.66
35.58
33.30
30.69
26.23
18.64
7.59
-6.03
-20.43
-33.57
-43.99
-51.39
-56.63
-61.36
-67.51
-76.61
-89.29
-104.93
-121.34
-134.90
-141.25
-136.55
-118.85
-89.14
-51.32
-11.05
26.03
55.98
77.28
90.58
97.57
99.92
98.66
94.40
87.78
79.94
72.45
66.78
63.60
62.48
62.06
60.80
57.74
53.01
47.68
43.04
39.89
37.91
35.72
31.52
23.84
12.35
-1.98
-17.18
-31.05
-41.97
-49.46
-54.28
-58.18
-63.26
-71.40
-83.59
-99.45
-116.88
-132.16
-140.65
-138.07
-122.03
-93.15
-55.18
-13.96
24.45
55.48
77.09
89.59
94.68
94.30
90.02
83.02
74.42
65.62
58.15
53.18
51.05
51.04
51.64
51.28
48.97
44.75
39.62
34.84
31.24
28.66
25.92
21.34
13.58
2.33
-11.46
-25.89
-38.93
-49.19
-56.47
-61.74
-66.71
-73.27
-82.91
-96.04
-111.60
-126.82
-137.63
-139.63
-129.55
-106.62
-73.18
-34.16
4.54
37.83
62.85
79.17
88.12
91.52
90.83
86.88
80.28
71.94
63.32
56.08
51.54
50.01
50.70
52.03
52.36
50.69
47.07
42.37
37.75
33.94
30.78
27.27
22.04
14.04
3.10
-9.91
-23.42
-35.75
-45.72
-53.07
-58.45
-63.15
-68.75
-76.73
-87.95
-102.29
-118.19
-132.51
-141.08
-139.77
-125.94
-99.67
-64.05
-24.33
13.73
45.59
69.06
84.23
92.65
96.19
96.20
93.40
88.25
81.39
73.92
67.16
62.25
59.70
59.19
59.73
60.07
59.21
56.78
53.01
48.55
44.01
39.56
34.84
29.09
21.51
11.72
0.02
-12.69
-25.18
-36.27
-45.28
-52.13
-57.41
-62.14
-67.55
-74.85
-84.93
-97.99
-113.11
-128.01
-139.12
-142.30
-134.12
-113.20
-81.09
-42.03
-1.75
34.34
62.70
82.35
94.36
100.70
103.13
102.58
99.45
94.06
87.19
80.08
74.02
69.88
67.74
67.05
66.88
66.41
65.10
62.81
59.57
55.55
50.89
45.62
39.65
32.83
24.94
15.87
5.67
-5.41
-16.86
-28.08
-38.51
-47.70
-55.50
-62.07
-67.89
-73.77
-80.77
-89.96
-101.98
-116.38
-131.09
-142.38
-145.67
-137.01
-114.77
-80.66
-39.48
2.35
38.87
66.39
84.03
93.16
96.09
94.82
90.57
83.99
75.77
67.01
59.17
53.55
50.82
50.68
52.00
53.30
53.33
51.51
47.98
43.46
38.76
34.32
30.07
25.35
19.30
11.21
0.87
-11.21
-23.98
-36.13
-46.46
-54.35
-59.88
-63.86
-67.61
-72.61
-80.17
-91.00
-104.78
-119.87
-133.12
-140.44
-137.78
-122.58
-95.01
-58.23
-17.68
20.70
52.22
74.63
88.10
94.30
95.20
92.23
86.25
77.95
68.39
59.05
51.57
47.05
45.68
46.68
48.62
50.06
50.01
48.19
44.91
40.87
36.69
32.61
28.33
23.10
16.02
6.58
-5.02
-17.78
-30.19
-40.83
-48.91
-54.59
-58.87
-63.20
-68.97
-77.22
-88.42
-102.19
-117.05
-130.19
-137.73
-135.68
-121.30
-94.45
-58.09
-17.52
21.22
53.31
76.32
90.33
97.00
98.36
95.94
90.59
82.94
73.85
64.63
56.79
51.44
48.92
48.69
49.59
50.39
50.17
48.61
45.91
42.51
38.84
35.02
30.82
25.72
19.08
10.44
-0.19
-12.25
-24.63
-36.10
-45.60
-52.72
-57.80
-61.85
-66.22
-72.26
-81.03
-92.96
-107.46
-122.56
-134.92
-140.34
-134.92
-116.58
-86.18
-47.55
-6.47
31.17
61.08
81.52
92.98
97.21
96.07
90.99
82.94
73.00
62.55
53.27
46.61
43.19
42.58
43.44
44.09
43.28
40.66
36.81
32.85
29.77
27.80
26.16
23.34
17.80
8.65
-3.70
-17.74
-31.36
-42.71
-50.94
-56.42
-60.49
-64.86
-71.11
-80.22
-92.39
-106.80
-121.34
-132.66
-136.67
-129.75
-110.13
-78.99
-40.43
-0.30
35.68
63.60
82.07
91.91
94.96
92.99
87.33
78.96
69.02
59.02
50.59
44.83
41.90
40.89
40.35
39.02
36.41
32.93
29.51
26.89
25.09
23.27
20.07
14.25
5.35
-6.08
-18.62
-30.60
-40.69
-48.43
-54.35
-59.81
-66.50
-75.91
-88.65
-103.90
-119.20
-130.70
-134.12
-126.05
-105.32
-73.63
-35.28
4.11
39.24
66.48
84.41
93.52
95.35
91.77
84.48
75.07
65.05
55.89
48.71
43.98
41.39
39.95
38.55
36.48
33.71
30.78
28.36
26.66
25.10
22.51
17.65
9.82
-0.65
-12.57
-24.32
-34.54
-42.71
-49.30
-55.55
-63.02
-73.12
-86.43
-102.27
-118.29
-130.71
-135.02
-127.50
-106.63
-74.03
-34.24
6.64
42.88
70.75
89.04
98.66
101.49
99.38
93.67
85.48
75.94
66.48
58.46
52.74
49.35
47.47
45.97
43.94
41.19
38.18
35.57
33.73
32.24
30.00
25.63
18.16
7.53
-5.26
-18.51
-30.48
-40.05
-47.18
-52.86
-58.82
-66.93
-78.55
-93.79
-110.95
-126.51
-135.75
-134.11
-118.84
-90.28
-52.11
-10.25
28.99
60.80
82.92
95.56
100.41
99.43
94.29
86.24
76.52
66.59
57.96
51.69
47.99
46.16
44.93
43.18
40.40
36.92
33.54
30.90
29.02
27.07
23.63
17.36
7.75
-4.62
-18.16
-30.97
-41.59
-49.65
-55.95
-62.10
-69.92
-80.80
-95.11
-111.74
-128.00
-139.85
-142.84
-133.48
-110.73
-76.65
-36.16
4.55
39.85
66.27
82.90
90.84
92.04
88.41
81.40
72.32
62.54
53.53
46.59
42.31
40.37
39.74
39.16
37.77
35.46
32.74
30.32
28.48
26.76
24.01
18.89
10.59
-0.73
-13.84
-26.89
-38.14
-46.64
-52.61
-57.31
-62.65
-70.51
-82.11
-97.32
-114.25
-129.21
-137.46
-134.60
-118.22
-89.05
-51.01
-10.07
27.72
58.09
79.35
92.12
98.18
99.27
96.51
90.59
82.30
72.98
64.39
58.12
54.88
54.16
54.50
54.17
52.06
48.06
43.09
38.45
35.06
32.87
30.74
27.00
20.16
9.69
-3.69
-18.19
-31.76
-42.80
-50.82
-56.49
-61.31
-67.05
-75.26
-86.79
-101.47
-117.80
-132.75
-142.19
-141.81
-128.64
-102.41
-66.04
-24.99
14.53
47.50
71.44
86.45
94.28
97.00
96.05
92.15
85.74
77.62
69.12
61.91
57.23
55.43
55.75
56.68
56.67
54.71
50.79
45.79
40.90
37.05
34.29
31.74
27.93
21.49
11.81
-0.63
-14.42
-27.75
-39.09
-47.64
-53.56
-57.77
-61.68
-66.75
-74.31
-85.19
-99.36
-115.53
-130.89
-141.40
-142.75
-131.77
-107.81
-73.26
-33.08
6.81
41.33
67.56
84.99
94.77
98.65
98.04
93.87
86.98
78.50
69.98
63.05
58.79
57.28
57.58
58.14
57.48
54.85
50.45
45.21
40.24
36.18
32.76
28.88
23.04
14.11
1.93
-12.54
-27.49
-40.97
-51.67
-59.39
-65.07
-70.36
-77.12
-86.82
-100.06
-116.15
-132.95
-146.94
-153.90
-150.06
-133.44
-104.76
-67.50
-26.93
11.57
43.98
68.42
84.99
94.79
99.09
98.86
94.88
88.22
80.39
73.14
67.91
65.24
64.62
64.73
64.17
62.04
58.30
53.63
48.96
44.85
41.13
36.87
30.82
22.00
10.25
-3.56
-17.77
-30.64
-40.96
-48.54
-54.21
-59.50
-66.12
-75.47
-88.11
-103.42
-119.27
-132.13
-137.74
-132.37
-114.26
-84.53
-47.16
-7.85
27.87
56.25
76.02
88.01
93.95
95.46
93.43
88.35
80.87
72.16
63.98
58.00
55.23
55.54
57.72
59.98
60.70
59.03
55.16
50.09
45.05
40.79
37.20
33.31
27.74
19.47
8.33
-4.82
-18.47
-30.99
-41.31
-49.21
-55.25
-60.49
-66.15
-73.36
-83.07
-95.69
-110.76
-126.46
-139.47
-145.49
-140.55
-122.50
-92.22
-53.64
-12.56
25.16
55.46
76.84
90.04
96.91
99.26
98.20
94.25
87.90
80.02
71.93
65.08
60.51
58.47
58.37
59.03
59.22
58.05
55.24
51.15
46.44
41.69
37.08
32.26
26.49
18.98
9.39
-2.05
-14.43
-26.53
-37.21
-45.81
-52.36
-57.53
-62.37
-68.06
-75.66
-85.93
-99.00
-114.01
-128.73
-139.67
-142.67
-134.23
-112.90
-80.22
-40.54
0.23
36.52
64.69
83.64
94.48
99.30
100.10
98.12
94.00
88.20
81.48
74.88
69.52
66.14
64.76
64.74
65.05
64.71
63.13
60.23
56.36
52.05
47.66
43.20
38.31
32.34
24.74
15.26
4.16
-7.82
-19.69
-30.49
-39.60
-46.89
-52.72
-57.86
-63.30
-70.07
-79.12
-90.99
-105.40
-120.71
-133.80
-140.51
-136.76
-120.20
-91.35
-53.87
-13.52
23.73
53.47
73.91
85.64
90.58
90.72
87.41
81.45
73.50
64.68
56.50
50.48
47.49
47.37
48.92
50.44
50.46
48.25
44.05
38.78
33.58
29.15
25.45
21.73
16.79
9.65
-0.05
-11.77
-24.20
-35.77
-45.22
-52.10
-56.88
-60.76
-65.18
-71.47
-80.53
-92.58
-106.92
-121.63
-133.48
-138.46
-132.89
-114.87
-85.35
-48.23
-9.25
25.94
53.47
72.07
82.69
87.29
87.62
84.70
79.00
71.09
62.12
53.75
47.66
44.82
45.10
47.29
49.68
50.77
49.79
46.89
42.88
38.69
34.90
31.40
27.44
21.99
14.23
4.01
-8.04
-20.64
-32.32
-41.93
-49.02
-53.95
-57.74
-61.72
-67.21
-75.27
-86.40
-100.19
-114.87
-127.27
-133.28
-129.01
-112.32
-83.90
-47.39
-8.30
27.73
56.65
76.86
88.90
94.46
95.30
92.63
87.20
79.72
71.23
63.14
56.80
53.08
52.01
52.71
53.77
53.79
51.89
48.02
42.93
37.67
33.14
29.53
26.15
21.76
15.12
5.63
-6.34
-19.53
-32.27
-43.11
-51.34
-57.13
-61.44
-65.59
-70.96
-78.71
-89.43
-102.79
-117.16
-129.49
-135.75
-132.01
-115.93
-87.94
-51.44
-11.89
24.94
54.81
75.90
88.71
94.96
96.38
94.04
88.49
80.34
70.76
61.59
54.66
51.07
50.64
52.03
53.33
52.99
50.43
46.18
41.47
37.45
34.57
32.26
29.21
23.94
15.58
4.24
-8.94
-22.21
-33.94
-43.16
-49.83
-54.75
-59.21
-64.63
-72.25
-82.86
-96.45
-111.68
-125.67
-134.30
-133.29
-119.75
-93.55
-57.76
-17.89
19.94
50.90
72.66
85.38
90.72
90.63
86.55
79.33
69.75
59.04
48.93
41.20
36.98
36.23
37.76
39.70
40.30
38.67
35.03
30.41
26.03
22.57
19.70
16.27
10.75
2.12
-9.64
-23.33
-37.06
-48.95
-57.92
-64.04
-68.43
-72.79
-78.81
-87.70
-99.82
-114.41
-129.34
-141.18
-145.78
-139.43
-120.28
-89.35
-50.60
-9.81
27.21
56.37
76.18
87.35
91.76
91.26
87.05
79.94
70.79
61.00
52.33
46.34
43.71
43.91
45.43
46.47
45.79
43.14
39.26
35.35
32.30
30.17
28.02
24.33
17.71
7.62
-5.26
-19.26
-32.32
-42.85
-50.26
-55.18
-59.13
-63.98
-71.43
-82.48
-97.12
-113.96
-130.13
-141.57
-143.98
-134.11
-111.11
-77.20
-37.16
3.00
37.98
64.57
82.12
91.87
95.82
95.72
92.62
87.16
80.06
72.46
65.74
61.02
58.62
57.92
57.66
56.55
53.87
49.81
45.21
41.11
38.08
35.86
33.34
28.94
21.35
10.11
-3.98
-19.04
-32.83
-43.59
-50.79
-55.28
-58.95
-63.97
-72.09
-84.13
-99.68
-116.86
-132.42
-142.14
-141.87
-128.84
-102.89
-66.95
-26.35
12.88
45.87
70.13
85.70
94.24
97.70
97.53
94.47
89.03
81.99
74.65
68.44
64.38
62.56
62.10
61.57
59.72
56.10
51.23
46.28
42.36
39.87
38.14
35.62
30.63
22.03
9.88
-4.53
-19.15
-31.98
-41.76
-48.42
-53.05
-57.42
-63.49
-72.81
-86.03
-102.52
-120.06
-134.95
-142.67
-139.18
-122.32
-92.93
-54.88
-13.97
23.92
54.51
76.02
88.93
94.92
95.79
92.85
87.01
79.17
70.65
63.00
57.60
55.05
54.92
55.88
56.29
54.89
51.30
46.12
40.57
35.77
32.11
28.96
24.88
18.31
8.41
-4.45
-18.84
-32.81
-44.73
-53.92
-60.81
-66.67
-73.16
-81.78
-93.51
-108.31
-124.82
-140.16
-150.24
-150.91
-139.30
-115.14
-81.08
-42.08
-3.72
29.48
55.06
72.75
83.60
89.04
90.10
87.42
81.60
73.68
65.26
58.17
53.85
52.75
54.08
56.19
57.22
55.94
52.20
46.82
41.05
35.81
31.22
26.49
20.37
11.85
0.68
-12.35
-25.74
-37.82
-47.41
-54.31
-59.25
-63.65
-69.18
-77.27
-88.77
-103.56
-120.22
-135.85
-146.43
-147.71
-136.60
-112.52
-77.96
-37.90
1.71
35.86
61.84
79.44
90.19
96.10
98.61
98.42
95.76
91.05
85.19
79.52
75.24
72.98
72.51
72.94
73.17
72.30
69.94
66.22
61.59
56.53
51.33
45.98
40.25
33.71
25.94
16.72
6.16
-5.26
-16.71
-27.28
-36.32
-43.68
-49.75
-55.42
-61.73
-69.72
-80.16
-93.28
-108.39
-123.50
-135.35
-139.91
-133.64
-114.86
-84.74
-47.23
-7.83
28.06
56.84
77.26
90.11
97.13
100.03
99.93
97.51
93.34
88.24
83.24
79.29
76.89
75.90
75.59
75.08
73.79
71.69
69.27
67.11
65.36
63.46
60.30
54.76
46.35
35.64
24.08
13.41
4.86
-1.39
-6.19
-10.99
-17.11
-25.09
-34.56
-44.37
-53.22
-60.21
-65.19
-68.87
-72.67
-78.28
-87.15
-99.88
-115.60
-131.61
-143.64
-146.89
-137.55
-114.42
-79.63
-38.31
3.08
38.78
65.35
82.20
90.83
93.60
92.57
89.02
83.76
77.51
71.23
65.94
62.35
60.53
59.89
59.56
58.81
57.37
55.38
53.11
50.64
47.72
43.88
38.68
31.98
24.07
15.53
7.02
-1.01
-8.53
-15.86
-23.46
-31.61
-40.13
-48.41
-55.62
-61.17
-65.03
-67.93
-71.18
-76.34
-84.65
-96.42
-110.55
-124.32
-133.74
-134.52
-123.51
-99.99
-66.35
-27.51
10.54
42.66
65.94
80.06
86.60
87.77
85.47
80.86
74.61
67.39
60.13
53.90
49.51
47.21
46.55
46.74
46.99
46.85
46.23
45.24
43.83
41.69
38.34
33.38
26.79
19.04
10.88
3.06
-4.11
-10.79
-17.45
-24.52
-32.15
-39.99
-47.48
-54.03
-59.36
-63.64
-67.43
-71.64
-77.39
-85.70
-96.99
-110.42
-123.50
-132.26
-132.28
-120.29
-95.66
-61.02
-21.60
16.47
48.15
70.83
84.48
90.86
92.18
90.19
85.89
79.82
72.58
65.03
58.24
53.09
49.98
48.68
48.59
48.94
49.13
48.75
47.63
45.60
42.55
38.35
32.94
26.44
19.10
11.29
3.29
-4.77
-12.93
-21.33
-29.96
-38.63
-46.88
-54.19
-60.22
-64.97
-68.92
-73.01
-78.39
-86.16
-96.76
-109.37
-121.49
-129.21
-128.13
-115.07
-89.43
-53.93
-13.89
24.44
55.99
78.13
90.92
96.20
96.27
92.89
87.07
79.40
70.54
61.56
53.69
47.98
44.86
44.06
44.72
45.72
46.10
45.27
43.11
39.86
35.92
31.63
27.05
21.95
15.91
8.55
-0.29
-10.37
-21.06
-31.55
-41.02
-48.95
-55.21
-60.14
-64.46
-69.11
-75.05
-83.15
-93.87
-106.68
-119.76
-129.83
-132.74
-124.84
-104.42
-72.79
-34.20
5.39
40.29
66.74
83.61
91.90
93.55
90.32
83.38
73.58
62.03
50.34
40.45
33.85
31.04
31.31
32.99
34.27
33.94
31.80
28.55
25.26
22.64
20.61
18.23
14.12
7.16
-2.88
-15.16
-28.04
-39.67
-48.81
-55.16
-59.48
-63.22
-68.00
-75.21
-85.61
-99.01
-113.95
-127.58
-136.00
-135.18
-122.36
-97.25
-62.61
-23.49
14.27
45.92
68.95
83.21
90.09
91.27
88.03
81.16
71.50
60.37
49.65
41.21
36.25
34.71
35.38
36.53
36.69
35.32
32.83
30.19
28.14
26.58
24.53
20.46
13.13
2.30
-11.03
-24.89
-37.16
-46.41
-52.48
-56.45
-60.24
-65.85
-74.77
-87.56
-103.44
-120.16
-134.11
-140.89
-136.59
-119.15
-89.44
-51.35
-10.67
26.78
56.77
77.61
89.78
94.98
94.94
91.04
84.31
75.86
67.15
59.69
54.56
51.92
51.00
50.40
48.88
45.91
41.83
37.67
34.34
32.20
30.57
28.10
23.24
15.01
3.49
-10.22
-24.31
-37.00
-47.12
-54.46
-59.82
-64.73
-71.09
-80.54
-93.81
-110.01
-126.32
-138.33
-141.26
-131.52
-108.28
-73.97
-33.65
6.62
41.70
68.55
86.52
96.58
100.32
99.20
94.38
86.97
78.32
70.01
63.45
59.43
57.76
57.42
56.95
55.19
51.76
47.11
42.32
38.35
35.49
33.05
29.60
23.60
14.15
1.63
-12.51
-26.18
-37.62
-46.09
-52.14
-57.27
-63.40
-72.12
-84.23
-99.31
-115.51
-129.61
-137.51
-135.29
-120.56
-93.62
-57.68
-18.10
19.40
50.49
73.25
88.02
96.38
99.94
99.64
95.91
89.25
80.77
72.16
65.18
60.83
59.02
58.61
58.05
56.20
52.79
48.49
44.37
41.20
38.88
36.40
32.19
24.94
14.28
1.03
-13.06
-26.02
-36.41
-43.83
-49.00
-53.41
-58.84
-66.89
-78.52
-93.53
-110.18
-125.09
-133.87
-132.28
-117.83
-90.97
-55.19
-16.04
20.71
50.81
72.43
85.97
92.98
95.13
93.51
88.79
81.65
73.21
65.04
58.65
54.88
53.56
53.57
53.40
51.85
48.54
44.06
39.47
35.70
32.92
30.32
26.42
19.70
9.45
-3.86
-18.57
-32.48
-43.72
-51.50
-56.42
-60.18
-64.96
-72.65
-84.26
-99.43
-116.24
-131.29
-140.26
-138.97
-124.79
-97.85
-61.41
-21.01
17.24
48.61
70.95
84.67
91.70
94.12
93.25
89.65
83.67
76.15
68.51
62.38
58.83
57.88
58.47
58.96
57.98
54.93
50.26
45.06
40.49
37.14
34.67
32.01
27.68
20.54
10.21
-2.68
-16.71
-30.15
-41.56
-50.20
-56.27
-60.75
-65.14
-71.04
-79.82
-92.09
-107.26
-123.12
-135.97
-141.32
-135.30
-116.09
-84.95
-46.12
-5.58
30.92
59.47
78.90
90.30
95.82
97.48
96.45
93.18
88.01
81.65
75.25
70.10
66.98
65.87
65.93
65.94
64.81
62.04
57.77
52.60
47.33
42.51
38.27
34.21
29.55
23.39
15.08
4.51
-7.73
-20.50
-32.52
-42.78
-50.85
-56.99
-61.96
-66.79
-72.61
-80.46
-91.06
-104.38
-119.06
-132.10
-139.25
-136.13
-119.91
-90.70
-51.98
-9.69
29.68
61.18
82.66
94.80
99.97
100.81
99.17
95.85
91.11
85.26
79.03
73.39
69.15
66.53
65.14
64.13
62.69
60.39
57.20
53.38
49.28
45.06
40.68
35.91
30.41
23.85
15.93
6.58
-4.04
-15.46
-26.97
-37.76
-47.13
-54.70
-60.54
-65.21
-69.65
-75.06
-82.61
-93.14
-106.62
-121.60
-134.95
-142.34
-139.40
-123.37
-94.53
-56.47
-15.07
23.36
54.13
75.30
87.43
92.48
92.48
88.73
81.97
72.93
62.86
53.53
46.69
43.29
43.09
44.68
46.17
45.94
43.30
38.66
33.20
28.23
24.52
21.88
19.29
15.29
8.68
-0.95
-13.01
-26.07
-38.45
-48.75
-56.35
-61.54
-65.37
-69.30
-74.82
-83.06
-94.45
-108.29
-122.52
-133.75
-137.89
-131.37
-112.43
-82.14
-44.40
-4.87
30.85
58.77
77.44
87.57
90.97
89.47
84.37
76.48
66.80
56.79
48.24
42.60
40.42
40.95
42.48
43.17
41.84
38.43
33.89
29.56
26.43
24.57
23.00
20.11
14.45
5.35
-6.68
-20.12
-33.02
-43.77
-51.69
-57.14
-61.28
-65.67
-71.86
-81.03
-93.55
-108.56
-123.55
-134.52
-136.95
-127.34
-104.74
-71.40
-32.25
6.83
40.79
66.80
84.30
94.21
97.93
96.59
91.09
82.48
72.30
62.44
54.70
50.05
48.34
48.37
48.47
47.25
44.17
39.74
35.07
31.31
28.88
27.23
25.03
20.72
13.26
2.61
-10.25
-23.65
-35.87
-45.74
-53.05
-58.51
-63.52
-69.71
-78.49
-90.56
-105.43
-121.13
-134.21
-140.40
-135.86
-118.59
-89.48
-52.32
-12.71
23.74
53.10
73.84
86.56
92.84
94.26
91.86
86.34
78.62
70.08
62.35
56.75
53.68
52.57
52.10
50.95
48.42
44.67
40.56
37.06
34.63
32.80
30.31
25.63
17.72
6.59
-6.60
-20.01
-31.88
-41.19
-48.06
-53.54
-59.20
-66.62
-76.94
-90.50
-106.44
-122.34
-134.42
-138.31
-130.43
-109.53
-77.49
-38.93
0.20
34.56
60.88
78.36
87.96
91.39
90.19
85.52
78.39
70.04
61.94
55.41
51.16
48.97
47.87
46.60
44.29
40.84
36.93
33.45
30.94
29.13
26.88
22.65
15.27
4.54
-8.57
-22.28
-34.70
-44.53
-51.59
-56.80
-61.90
-68.85
-79.19
-93.38
-110.25
-126.81
-138.76
-141.56
-131.98
-109.29
-75.87
-36.52
2.94
37.39
63.66
80.80
89.60
91.62
88.54
81.83
72.92
63.38
54.81
48.46
44.83
43.46
43.12
42.44
40.59
37.58
34.09
30.96
28.50
26.22
22.91
17.27
8.59
-2.88
-15.93
-28.88
-40.25
-49.32
-56.41
-62.68
-69.82
-79.36
-92.15
-107.68
-123.80
-136.86
-142.49
-136.96
-118.58
-88.56
-50.86
-11.02
25.58
55.22
76.49
89.90
96.91
98.96
97.08
92.03
84.76
76.61
69.11
63.48
60.14
58.55
57.53
55.92
53.11
49.30
45.26
41.79
39.17
36.84
33.58
28.02
19.27
7.47
-6.24
-20.05
-32.28
-41.95
-49.24
-55.28
-61.80
-70.56
-82.73
-98.37
-116.00
-132.50
-143.63
-145.03
-133.77
-109.54
-75.13
-35.63
3.18
36.63
62.35
80.26
91.71
98.27
101.00
100.31
96.48
90.16
82.71
75.77
70.74
68.18
67.53
67.47
66.52
63.77
59.25
53.82
48.66
44.60
41.59
38.68
34.38
27.35
17.06
4.02
-10.30
-24.08
-35.79
-44.75
-51.33
-56.71
-62.52
-70.38
-81.43
-95.95
-112.88
-129.60
-142.12
-145.95
-137.56
-115.77
-82.56
-42.69
-2.15
33.72
61.70
81.16
93.29
99.91
102.44
101.56
97.60
91.14
83.42
76.10
70.68
67.84
67.14
67.22
66.48
63.86
59.25
53.54
48.01
43.68
40.63
37.93
34.00
27.33
17.16
3.92
-10.98
-25.65
-38.37
-48.26
-55.43
-60.84
-65.93
-72.25
-81.08
-93.15
-108.26
-124.82
-139.75
-148.81
-147.74
-133.68
-106.52
-69.32
-27.53
12.68
46.37
71.04
86.70
94.97
97.81
96.65
92.25
85.23
76.60
67.94
61.05
57.14
56.39
57.75
59.50
59.99
58.36
54.72
49.93
44.98
40.46
36.24
31.53
25.32
16.84
5.95
-6.68
-19.84
-32.14
-42.46
-50.36
-56.16
-60.81
-65.68
-72.21
-81.61
-94.40
-109.92
-125.97
-138.87
-144.24
-138.24
-119.12
-88.08
-49.16
-8.14
29.32
59.22
80.00
92.27
97.84
98.64
96.12
91.14
84.42
76.85
69.57
63.67
59.84
58.10
57.81
58.05
57.94
56.98
55.02
52.12
48.33
43.68
38.10
31.61
24.27
16.20
7.48
-1.85
-11.76
-22.02
-32.21
-41.73
-50.07
-56.95
-62.53
-67.39
-72.42
-78.70
-87.29
-98.86
-113.14
-128.43
-141.38
-147.59
-142.83
-124.73
-93.94
-54.30
-11.76
27.63
59.44
81.87
95.48
102.15
103.89
102.18
97.95
91.98
85.28
79.02
74.21
71.27
69.87
69.15
68.23
66.63
64.40
61.94
59.51
57.00
53.88
49.51
43.44
35.74
26.92
17.70
8.61
-0.17
-8.83
-17.72
-27.00
-36.46
-45.49
-53.36
-59.59
-64.21
-67.97
-72.12
-78.18
-87.46
-100.45
-116.22
-132.06
-143.69
-146.31
-136.18
-112.20
-76.58
-34.47
7.82
44.71
72.92
91.78
102.50
106.96
106.89
103.51
97.71
90.46
82.83
75.88
70.33
66.35
63.64
61.65
59.82
57.85
55.71
53.47
51.08
48.27
44.54
39.42
32.67
24.52
15.50
6.21
-2.97
-12.07
-21.28
-30.71
-40.17
-49.14
-57.04
-63.56
-68.81
-73.34
-78.03
-83.88
-91.87
-102.59
-115.65
-129.17
-139.64
-142.66
-134.36
-113.05
-80.29
-40.58
-0.02
35.77
63.24
81.46
91.46
95.08
93.90
88.90
80.75
70.40
59.27
49.18
41.71
37.69
36.90
38.22
40.09
41.11
40.50
38.18
34.65
30.59
26.50
22.41
17.92
12.34
5.07
-4.09
-14.82
-26.24
-37.23
-46.82
-54.47
-60.30
-65.00
-69.56
-75.11
-82.66
-92.86
-105.64
-119.75
-132.51
-140.09
-138.49
-124.95
-99.28
-64.23
-24.81
13.33
45.62
69.69
85.34
93.80
96.60
94.89
89.41
80.85
70.29
59.32
49.71
42.83
39.22
38.37
38.98
39.59
39.13
37.26
34.37
31.21
28.33
25.74
22.84
18.67
12.37
3.56
-7.37
-19.38
-31.07
-41.27
-49.30
-55.26
-59.92
-64.44
-70.07
-77.88
-88.56
-102.09
-117.21
-131.18
-139.96
-139.23
-125.95
-99.77
-63.60
-22.83
16.41
49.22
73.21
88.45
96.52
99.23
97.79
92.81
84.80
74.75
64.31
55.35
49.30
46.60
46.55
47.62
48.16
47.07
44.12
39.93
35.54
31.78
28.85
26.15
22.54
16.78
8.19
-3.11
-16.06
-29.10
-40.64
-49.73
-56.31
-61.20
-65.76
-71.46
-79.48
-90.50
-104.33
-119.55
-133.37
-141.81
-140.71
-127.14
-100.75
-64.34
-23.20
16.59
50.09
74.77
90.67
99.41
102.93
102.60
99.05
92.68
84.32
75.35
67.48
62.04
59.43
58.97
59.23
58.75
56.59
52.69
47.69
42.53
37.95
34.08
30.40
25.91
19.56
10.73
-0.49
-13.21
-26.06
-37.68
-47.22
-54.64
-60.63
-66.30
-72.82
-81.19
-92.02
-105.26
-119.76
-132.98
-141.17
-140.34
-127.63
-102.68
-68.14
-29.01
9.07
41.56
66.14
82.70
92.39
96.57
96.12
91.54
83.42
73.06
62.46
53.75
48.44
46.77
47.66
49.22
49.68
48.10
44.68
40.40
36.32
32.94
29.90
26.07
20.22
11.61
0.40
-12.31
-24.93
-35.93
-44.45
-50.66
-55.65
-60.99
-68.21
-78.35
-91.57
-106.98
-122.42
-134.67
-139.90
-134.74
-117.46
-89.01
-52.98
-14.71
20.50
48.89
69.04
81.50
87.79
89.29
86.89
81.22
73.17
64.10
55.70
49.34
45.63
44.14
43.77
43.28
41.90
39.56
36.80
34.31
32.37
30.50
27.51
22.02
13.15
1.06
-12.87
-26.62
-38.30
-46.88
-52.61
-56.81
-61.37
-68.22
-78.69
-93.09
-110.22
-127.25
-139.97
-143.86
-135.41
-113.68
-80.84
-41.67
-2.03
32.99
60.42
79.65
91.69
98.05
99.91
97.94
92.66
85.04
76.60
69.12
63.94
61.38
60.63
60.19
58.68
55.44
50.84
45.95
41.87
39.08
37.14
34.77
30.41
22.84
11.73
-2.11
-17.00
-31.02
-42.59
-51.14
-57.18
-62.12
-67.76
-75.78
-87.24
-102.19
-119.28
-135.57
-146.86
-148.66
-137.74
-113.49
-78.56
-38.15
1.68
35.96
62.17
80.20
91.50
97.75
100.07
98.96
94.82
88.48
81.36
75.08
70.82
68.84
68.42
68.17
66.73
63.39
58.39
52.71
47.59
43.75
41.05
38.36
34.13
26.98
16.46
3.16
-11.43
-25.55
-37.76
-47.40
-54.70
-60.57
-66.33
-73.39
-82.98
-95.75
-111.33
-127.91
-142.07
-149.49
-146.19
-130.02
-101.77
-65.17
-25.75
11.01
41.29
63.71
78.88
88.27
93.18
94.29
91.89
86.55
79.52
72.54
67.31
64.71
64.46
65.28
65.54
64.00
60.37
55.30
49.94
45.35
41.82
38.74
34.81
28.61
19.26
6.89
-7.35
-21.73
-34.55
-44.78
-52.37
-58.19
-63.66
-70.28
-79.27
-91.24
-105.90
-121.74
-135.91
-144.58
-143.88
-131.23
-106.52
-72.51
-34.11
3.23
35.14
59.51
76.40
87.16
93.30
95.67
94.49
89.98
82.94
74.90
67.76
62.96
60.89
60.75
61.01
60.20
57.57
53.35
48.45
43.88
40.16
36.95
33.27
27.87
19.86
9.15
-3.41
-16.37
-28.18
-37.82
-45.19
-51.07
-56.75
-63.63
-72.76
-84.67
-99.04
-114.47
-128.30
-136.94
-136.65
-124.89
-101.47
-68.94
-31.93
4.33
35.74
60.22
77.74
89.48
96.77
100.43
100.78
97.98
92.62
85.83
79.06
73.60
70.17
68.64
68.21
67.80
66.48
63.79
59.86
55.11
50.00
44.76
39.30
33.22
26.07
17.50
7.45
-3.75
-15.42
-26.70
-36.77
-45.23
-52.20
-58.25
-64.30
-71.39
-80.49
-92.25
-106.62
-122.35
-136.63
-145.47
-144.62
-131.30
-105.40
-69.99
-30.41
7.52
39.40
63.23
79.37
89.51
95.41
98.23
98.43
96.19
91.86
86.21
80.27
75.03
71.19
68.89
67.83
67.39
66.86
65.60
63.27
59.72
55.05
49.47
43.19
36.35
29.01
21.08
12.38
2.80
-7.58
-18.42
-29.09
-38.94
-47.47
-54.62
-60.76
-66.65
-73.29
-81.69
-92.64
-106.18
-121.20
-135.07
-143.98
-143.92
-132.09
-108.15
-74.62
-36.26
1.50
34.14
59.21
76.37
86.78
92.02
93.36
91.54
87.02
80.48
72.99
65.91
60.49
57.38
56.38
56.56
56.71
55.81
53.39
49.51
44.58
39.05
33.23
27.21
20.83
13.82
5.90
-3.08
-12.99
-23.32
-33.34
-42.39
-50.09
-56.51
-62.10
-67.57
-73.65
-81.08
-90.54
-102.27
-115.58
-128.39
-137.23
-138.12
-127.94
-105.81
-73.76
-36.23
1.41
34.48
60.26
78.14
89.01
94.27
95.06
92.03
85.67
76.84
66.93
57.76
51.00
47.59
47.34
49.04
50.95
51.54
49.99
46.34
41.27
35.58
29.83
24.09
18.00
11.05
2.83
-6.73
-17.25
-27.96
-37.99
-46.66
-53.75
-59.56
-64.74
-70.17
-76.65
-84.90
-95.39
-107.97
-121.38
-133.01
-139.08
-135.81
-120.81
-94.26
-59.20
-20.65
16.03
46.79
69.72
84.87
93.41
96.67
95.61
90.91
83.32
74.02
64.60
56.68
51.46
49.26
49.48
50.87
51.98
51.72
49.68
46.09
41.63
36.94
32.37
27.76
22.58
16.18
8.07
-1.76
-12.78
-24.03
-34.45
-43.31
-50.43
-56.26
-61.64
-67.52
-74.77
-84.04
-95.64
-109.21
-123.24
-134.85
-140.10
-135.07
-117.47
-87.85
-49.84
-9.15
28.38
58.50
79.57
92.27
98.46
99.96
97.93
92.94
85.49
76.53
67.48
59.90
54.89
52.67
52.50
53.08
53.02
51.44
48.20
43.77
38.92
34.23
29.87
25.49
20.40
13.91
5.57
-4.53
-15.78
-27.15
-37.56
-46.25
-53.08
-58.50
-63.43
-68.92
-75.92
-85.21
-97.08
-110.99
-125.09
-136.09
-139.81
-132.43
-112.13
-80.15
-40.71
0.27
37.14
66.23
86.36
98.39
103.98
104.58
101.15
94.36
85.14
74.89
65.24
57.60
52.65
50.17
49.21
48.57
47.21
44.66
41.04
36.89
32.78
29.05
25.50
21.48
16.15
8.79
-0.74
-11.96
-23.83
-35.09
-44.70
-52.15
-57.66
-62.06
-66.56
-72.45
-80.83
-92.27
-106.48
-121.82
-135.21
-142.49
-139.58
-123.95
-95.87
-58.73
-18.08
20.09
51.27
73.44
86.89
93.22
94.08
90.62
83.54
73.70
62.58
52.19
44.45
40.45
39.94
41.49
43.15
43.33
41.36
37.69
33.41
29.57
26.59
23.97
20.53
14.94
6.42
-4.91
-17.93
-30.98
-42.49
-51.48
-57.95
-62.78
-67.37
-73.29
-81.81
-93.61
-108.31
-124.08
-137.60
-144.52
-140.70
-123.73
-94.21
-55.89
-14.58
23.73
54.75
76.80
90.47
97.52
99.57
97.61
92.13
83.77
73.86
64.25
56.73
52.29
50.70
50.66
50.43
48.68
45.06
40.21
35.35
31.53
28.95
26.78
23.45
17.42
7.93
-4.57
-18.50
-31.88
-43.02
-51.24
-57.00
-61.66
-66.92
-74.34
-84.99
-99.09
-115.68
-132.32
-145.22
-149.90
-142.59
-121.74
-88.90
-48.58
-6.81
30.75
60.42
81.12
93.79
100.21
102.00
100.17
95.33
88.19
79.91
71.97
65.72
61.88
60.27
59.91
59.50
57.92
54.69
50.07
44.88
40.01
35.96
32.50
28.75
23.47
15.68
5.10
-7.62
-21.10
-33.71
-44.22
-52.21
-58.11
-63.08
-68.51
-75.79
-85.99
-99.57
-115.94
-133.03
-147.19
-153.89
-148.94
-130.22
-98.70
-58.52
-15.68
23.89
56.02
79.14
93.87
101.97
105.14
104.55
100.88
94.78
87.27
79.77
73.68
69.85
68.25
67.94
67.54
65.86
62.41
57.57
52.32
47.67
44.05
41.06
37.53
32.06
23.63
12.13
-1.56
-15.81
-28.95
-39.75
-47.92
-54.09
-59.46
-65.46
-73.34
-83.98
-97.65
-113.67
-129.97
-143.00
-148.43
-142.36
-122.97
-91.50
-52.20
-10.93
26.70
57.02
78.88
93.00
100.88
103.76
102.34
97.10
88.92
79.34
70.28
63.43
59.57
58.31
58.34
58.04
56.28
52.79
48.21
43.64
39.98
37.33
34.90
31.23
24.90
15.20
2.50
-11.82
-25.85
-37.92
-47.17
-53.73
-58.66
-63.49
-69.84
-79.04
-91.77
-107.59
-124.59
-139.33
-147.44
-144.79
-129.08
-100.83
-63.60
-22.95
15.37
47.05
70.14
84.78
92.30
94.17
91.46
85.09
76.18
66.41
57.72
51.71
48.99
48.87
49.76
49.88
48.10
44.36
39.56
34.99
31.52
29.12
26.74
22.80
15.88
5.43
-7.87
-22.38
-36.06
-47.32
-55.54
-61.34
-66.21
-72.07
-80.66
-92.95
-108.67
-125.96
-141.40
-150.55
-149.16
-134.65
-107.28
-70.38
-29.43
9.73
42.68
67.39
84.05
94.09
99.01
99.73
96.69
90.45
82.15
73.53
66.45
62.13
60.60
60.78
61.03
59.95
56.99
52.57
47.78
43.58
40.26
37.20
33.07
26.51
16.79
4.20
-9.98
-23.97
-36.15
-45.65
-52.68
-58.36
-64.32
-72.24
-83.37
-98.09
-115.46
-133.03
-146.93
-152.72
-146.63
-127.08
-95.52
-56.30
-15.27
22.10
52.25
74.19
88.89
98.08
103.18
104.85
103.30
98.89
92.58
85.76
79.91
75.90
73.72
72.58
71.32
68.99
65.24
60.40
55.20
50.36
46.16
42.18
37.43
30.79
21.50
9.60
-4.00
-17.84
-30.39
-40.66
-48.50
-54.60
-60.23
-66.82
-75.64
-87.53
-102.55
-119.54
-135.94
-147.84
-150.86
-141.55
-118.75
-84.45
-43.35
-1.50
35.64
64.74
85.05
97.86
105.23
108.89
109.69
107.84
103.51
97.30
90.35
84.00
79.21
76.20
74.31
72.47
69.68
65.51
60.27
54.71
49.59
45.19
41.10
36.33
29.80
20.81
9.33
-3.86
-17.49
-30.25
-41.15
-49.88
-56.82
-62.80
-68.92
-76.35
-86.09
-98.77
-114.18
-130.71
-145.21
-153.31
-150.66
-134.54
-105.21
-66.20
-23.38
16.98
50.17
74.08
89.08
96.95
99.58
98.24
93.64
86.45
77.78
69.20
62.27
57.90
55.97
55.43
54.80
52.90
49.31
44.48
39.39
35.02
31.76
29.12
25.88
20.55
12.12
0.55
-13.05
-26.82
-38.87
-48.08
-54.47
-59.13
-63.77
-70.12
-79.47
-92.33
-108.12
-124.91
-139.39
-147.29
-144.56
-128.74
-100.27
-62.62
-21.42
17.39
49.33
72.41
86.89
94.31
96.31
94.08
88.41
80.20
70.78
61.84
54.88
50.62
48.69
47.86
46.64
44.05
40.02
35.39
31.37
28.79
27.56
26.52
23.88
17.99
8.16
-5.01
-19.78
-33.95
-45.70
-54.23
-59.99
-64.46
-69.63
-77.39
-88.86
-103.88
-120.61
-135.56
-144.20
-142.24
-127.09
-98.98
-61.24
-19.35
20.76
54.44
79.37
95.51
104.17
107.02
105.32
99.96
91.86
82.34
73.10
65.75
61.17
59.12
58.38
57.28
54.50
49.66
43.44
37.21
32.21
28.92
26.71
24.08
19.33
11.36
0.18
-13.02
-26.46
-38.42
-47.92
-54.97
-60.57
-66.19
-73.44
-83.55
-96.99
-113.04
-129.40
-142.31
-147.33
-140.63
-120.48
-88.25
-48.20
-6.28
31.77
62.11
83.37
96.32
102.66
104.06
101.55
95.87
87.85
78.80
70.36
63.96
60.26
58.87
58.57
57.79
55.39
51.07
45.47
39.76
35.01
31.65
29.15
26.18
21.22
13.21
2.12
-10.96
-24.26
-36.05
-45.27
-51.95
-57.05
-62.10
-68.66
-77.93
-90.45
-105.78
-122.19
-136.53
-144.67
-142.50
-127.46
-99.70
-62.49
-21.29
17.97
50.72
74.80
90.31
98.60
101.18
99.07
92.98
83.82
73.09
62.71
54.48
49.35
47.12
46.54
46.04
44.40
41.24
37.02
32.63
28.78
25.50
22.05
17.20
9.89
-0.16
-12.23
-24.82
-36.31
-45.59
-52.56
-58.05
-63.50
-70.46
-80.19
-93.27
-109.24
-126.17
-140.61
-148.19
-144.78
-128.07
-98.75
-60.59
-19.34
19.16
50.64
73.26
87.28
94.12
95.27
91.89
84.92
75.54
65.36
56.18
49.47
45.73
44.41
44.11
43.31
41.09
37.42
33.04
28.91
25.56
22.67
19.16
13.69
5.34
-5.87
-18.87
-32.00
-43.59
-52.65
-59.27
-64.51
-70.08
-77.77
-88.83
-103.42
-120.09
-135.77
-146.16
-146.91
-135.00
-110.06
-74.79
-34.23
5.76
40.35
66.86
84.87
95.43
99.99
99.70
95.34
87.86
78.65
69.53
62.27
57.80
55.93
55.44
54.71
52.56
48.73
43.94
39.35
35.89
33.61
31.58
28.24
22.12
12.55
-0.01
-14.08
-27.78
-39.52
-48.62
-55.45
-61.33
-67.99
-77.07
-89.58
-105.30
-122.47
-137.73
-146.66
-145.08
-130.44
-103.02
-66.15
-25.29
13.75
46.50
70.87
87.04
96.49
100.85
101.20
98.11
92.14
84.29
76.17
69.46
65.32
63.85
64.05
64.28
63.04
59.63
54.37
48.36
42.86
38.54
35.14
31.61
26.55
18.94
8.57
-3.84
-16.91
-29.18
-39.56
-47.74
-54.16
-59.92
-66.36
-74.78
-86.14
-100.61
-117.17
-133.33
-145.22
-148.44
-139.43
-116.91
-82.70
-41.49
0.56
37.81
66.76
86.53
98.34
104.28
106.10
104.88
101.11
95.33
88.41
81.58
75.94
72.11
69.96
68.81
67.74
66.06
63.41
59.82
55.51
50.71
45.55
39.94
33.71
26.60
18.41
9.09
-1.24
-12.19
-23.22
-33.66
-43.01
-51.01
-57.80
-63.84
-69.86
-76.72
-85.34
-96.51
-110.47
-126.42
-141.96
-153.20
-155.62
-145.60
-122.00
-87.00
-45.67
-4.28
31.72
59.18
77.60
88.37
93.43
94.33
91.91
86.70
79.47
71.43
64.11
58.84
56.29
56.19
57.54
58.98
59.30
57.87
54.68
50.30
45.44
40.54
35.59
30.09
23.36
14.92
4.77
-6.51
-17.96
-28.57
-37.60
-44.85
-50.68
-55.80
-61.10
-67.45
-75.63
-86.27
-99.51
-114.60
-129.38
-140.31
-143.13
-134.27
-112.42
-79.39
-39.83
0.25
35.52
62.76
81.36
92.58
98.25
99.83
98.09
93.49
86.75
79.03
71.79
66.25
63.00
61.81
61.85
62.08
61.61
59.89
56.81
52.55
47.43
41.73
35.64
29.20
22.32
14.83
6.59
-2.42
-12.06
-21.96
-31.65
-40.67
-48.69
-55.67
-61.84
-67.72
-74.04
-81.72
-91.66
-104.28
-118.97
-133.50
-144.15
-146.48
-136.92
-114.22
-80.41
-40.27
0.15
35.52
62.71
81.15
92.15
97.66
99.32
98.06
94.46
89.10
82.90
76.94
72.06
68.60
66.32
64.65
63.06
61.29
59.37
57.39
55.27
52.64
49.00
43.90
37.30
29.55
21.26
12.94
4.80
-3.31
-11.69
-20.55
-29.74
-38.79
-47.13
-54.34
-60.39
-65.76
-71.29
-78.11
-87.29
-99.46
-114.21
-129.56
-141.98
-146.99
-140.63
-121.01
-89.33
-49.84
-8.55
28.78
58.24
78.59
90.77
96.79
98.52
97.19
93.49
88.12
82.08
76.53
72.39
69.89
68.53
67.41
65.78
63.40
60.57
57.72
55.09
52.44
49.22
44.88
39.19
32.38
24.92
17.27
9.56
1.63
-6.89
-16.24
-26.29
-36.50
-46.05
-54.22
-60.71
-65.85
-70.56
-76.09
-83.73
-94.31
-107.78
-122.70
-136.10
-143.85
-141.80
-127.25
-100.22
-63.84
-23.56
14.65
46.12
68.63
82.41
89.20
90.94
89.12
84.51
77.73
69.65
61.56
54.81
50.44
48.64
48.76
49.57
49.77
48.50
45.57
41.43
36.84
32.44
28.37
24.26
19.35
12.88
4.40
-5.92
-17.39
-28.94
-39.55
-48.53
-55.75
-61.60
-66.80
-72.22
-78.76
-87.25
-98.23
-111.43
-125.33
-136.87
-142.00
-136.83
-119.25
-90.07
-53.05
-13.77
22.22
51.12
71.55
84.18
90.58
92.15
89.75
83.94
75.52
65.94
57.07
50.57
47.24
46.70
47.60
48.24
47.32
44.43
40.05
35.24
31.01
27.79
25.20
22.20
17.56
10.36
0.49
-11.29
-23.63
-35.07
-44.57
-51.86
-57.48
-62.53
-68.33
-76.16
-86.89
-100.59
-116.10
-130.78
-140.68
-141.55
-130.27
-106.18
-71.77
-32.03
7.10
40.64
65.88
82.54
91.96
95.92
95.73
92.15
85.82
77.75
69.47
62.53
57.99
55.87
55.29
54.84
53.32
50.23
45.87
41.07
36.76
33.44
30.93
28.30
24.30
17.78
8.25
-3.86
-17.29
-30.40
-41.81
-50.83
-57.67
-63.29
-69.00
-76.20
-86.00
-98.90
-114.38
-130.43
-143.56
-149.44
-144.20
-125.96
-95.78
-57.62
-17.09
20.36
50.98
73.34
87.96
96.25
99.58
98.88
94.85
88.35
80.70
73.52
68.18
65.28
64.42
64.35
63.60
61.15
56.86
51.51
46.28
42.12
39.21
36.75
33.28
27.36
18.19
6.06
-7.71
-21.30
-33.09
-42.22
-48.93
-54.32
-60.03
-67.68
-78.46
-92.70
-109.49
-126.38
-139.60
-144.85
-138.56
-119.34
-88.72
-50.93
-11.56
24.18
52.91
73.54
86.70
93.75
95.86
93.84
88.35
80.44
71.66
63.75
58.01
54.81
53.44
52.55
50.85
47.74
43.55
39.24
35.75
33.36
31.38
28.35
22.71
13.63
1.44
-12.42
-25.95
-37.41
-46.05
-52.28
-57.48
-63.45
-71.85
-83.63
-98.62
-115.23
-130.32
-139.78
-139.51
-126.81
-101.61
-66.76
-27.35
10.89
43.32
67.46
83.08
91.44
94.21
92.80
88.23
81.44
73.61
66.15
60.30
56.63
54.81
53.74
52.17
49.30
45.17
40.59
36.52
33.45
30.97
27.83
22.56
14.17
2.78
-10.45
-23.72
-35.42
-44.72
-51.90
-58.09
-64.91
-73.98
-86.35
-102.04
-119.60
-135.92
-146.68
-147.45
-135.24
-109.92
-74.53
-34.57
3.93
36.26
60.23
76.10
85.54
90.34
91.61
89.77
85.11
78.42
71.10
64.79
60.75
59.26
59.52
60.06
59.45
56.90
52.55
47.30
42.23
38.00
34.42
30.50
24.93
16.72
5.73
-7.19
-20.55
-32.78
-42.86
-50.63
-56.78
-62.46
-68.97
-77.49
-88.83
-103.12
-119.41
-135.33
-147.19
-150.74
-142.57
-121.49
-89.32
-50.50
-10.71
24.98
53.52
74.22
88.16
97.03
102.15
104.13
103.15
99.50
93.97
87.75
82.13
77.93
75.29
73.69
72.29
70.35
67.51
63.84
59.61
55.05
50.19
44.85
38.68
31.40
22.89
13.17
2.49
-8.74
-19.92
-30.44
-39.79
-47.75
-54.52
-60.65
-66.99
-74.54
-84.27
-96.84
-112.02
-128.27
-142.40
-150.16
-147.40
-131.79
-103.86
-67.19
-27.19
10.66
42.51
66.83
84.03
95.52
102.63
106.15
106.45
103.85
99.01
92.95
86.89
81.85
78.39
76.47
75.53
74.79
73.49
71.18
67.77
63.35
58.10
52.15
45.53
38.23
30.26
21.63
12.36
2.43
-8.06
-18.87
-29.53
-39.55
-48.50
-56.22
-62.93
-69.17
-75.81
-83.87
-94.28
-107.40
-122.34
-136.60
-146.27
-146.99
-135.58
-111.43
-77.06
-37.49
1.40
34.76
60.03
77.04
87.15
92.15
93.31
91.31
86.56
79.80
72.21
65.24
60.14
57.41
56.75
57.20
57.58
56.96
54.89
51.38
46.78
41.52
35.90
30.08
24.00
17.52
10.38
2.41
-6.46
-16.07
-26.02
-35.77
-44.78
-52.75
-59.64
-65.78
-71.80
-78.54
-86.93
-97.77
-111.15
-125.99
-139.63
-148.11
-147.23
-134.01
-108.16
-72.48
-32.20
6.79
39.73
64.24
80.34
89.55
93.66
93.97
91.15
85.70
78.44
70.69
63.92
59.26
57.09
56.91
57.67
58.16
57.52
55.39
51.91
47.56
42.82
37.97
32.99
27.56
21.26
13.73
4.80
-5.38
-16.33
-27.38
-37.83
-47.09
-54.87
-61.25
-66.76
-72.27
-78.94
-87.91
-99.86
-114.41
-129.60
-141.92
-146.97
-140.88
-121.79
-90.92
-52.38
-11.90
25.02
54.68
75.87
89.37
96.79
99.62
98.69
94.51
87.75
79.61
71.63
65.25
61.20
59.33
58.75
58.35
57.23
54.93
51.44
47.05
42.17
37.13
32.16
27.21
21.92
15.75
8.13
-1.16
-11.83
-23.10
-34.02
-43.81
-52.10
-59.08
-65.24
-71.28
-78.02
-86.37
-97.07
-110.21
-124.65
-137.66
-145.21
-143.13
-128.70
-101.85
-65.62
-25.24
13.58
46.31
70.71
86.75
95.86
99.76
99.80
96.80
91.39
84.41
76.98
70.37
65.52
62.73
61.55
61.06
60.30
58.54
55.61
51.72
47.29
42.69
38.07
33.33
28.13
21.99
14.48
5.33
-5.32
-16.89
-28.43
-38.98
-47.85
-54.93
-60.65
-65.92
-71.81
-79.39
-89.51
-102.39
-117.15
-131.43
-141.49
-143.10
-132.96
-110.19
-76.99
-38.12
0.70
34.58
60.79
78.83
89.71
94.80
95.13
91.33
84.15
74.81
65.17
57.13
51.99
49.96
50.08
50.72
50.28
47.82
43.34
37.66
31.96
27.10
23.27
19.75
15.28
8.64
-0.72
-12.37
-25.00
-37.01
-47.18
-55.12
-61.38
-67.10
-73.59
-81.99
-92.96
-106.36
-120.96
-134.23
-142.56
-142.20
-130.49
-107.02
-74.11
-36.22
1.44
34.48
60.34
78.45
89.55
94.78
95.12
91.21
83.82
74.16
64.04
55.43
49.74
47.32
47.23
47.77
47.28
44.93
41.01
36.48
32.39
29.04
25.80
21.41
14.63
4.92
-7.23
-20.44
-33.05
-43.72
-51.90
-58.02
-63.24
-69.13
-77.24
-88.65
-103.42
-120.29
-136.38
-147.63
-149.77
-139.70
-116.74
-83.20
-43.80
-4.19
30.74
58.08
77.21
89.02
94.97
96.25
93.67
87.94
80.16
71.85
64.66
59.70
57.17
56.20
55.42
53.60
50.23
45.75
41.17
37.44
34.83
32.66
29.51
23.83
14.71
2.33
-11.97
-26.26
-38.68
-48.21
-54.95
-60.06
-65.24
-72.29
-82.60
-96.64
-113.69
-131.40
-146.03
-153.07
-148.61
-130.79
-100.75
-62.50
-21.69
16.22
47.54
70.98
87.19
97.63
103.53
105.52
103.83
98.92
91.89
84.39
78.01
73.64
71.17
69.57
67.59
64.35
59.89
54.94
50.51
47.22
44.87
42.38
38.23
31.06
20.26
6.30
-9.38
-24.86
-38.32
-48.64
-55.76
-60.59
-64.77
-70.23
-78.68
-91.22
-107.74
-126.53
-144.19
-156.22
-158.05
-146.69
-121.94
-86.66
-46.04
-5.84
29.32
56.94
76.75
89.83
97.59
101.03
100.74
97.22
91.32
84.37
77.88
73.01
70.21
68.99
68.34
67.19
64.99
61.90
58.65
56.04
54.37
53.13
51.07
46.65
38.69
26.92
12.13
-4.01
-19.60
-33.11
-43.82
-51.96
-58.53
-64.88
-72.45
-82.41
-95.38
-111.00
-127.61
-142.03
-150.18
-148.07
-133.29
-106.15
-69.87
-29.74
8.61
40.84
64.97
81.15
90.84
95.65
96.63
94.33
89.21
82.19
74.67
68.21
63.90
61.91
61.45
61.17
59.80
56.68
51.97
46.47
41.13
36.59
32.76
28.84
23.60
15.93
5.42
-7.44
-21.31
-34.54
-45.87
-54.89
-62.11
-68.69
-75.94
-84.95
-96.45
-110.59
-126.62
-142.58
-155.11
-160.06
-153.61
-133.89
-102.04
-62.18
-20.22
18.13
49.06
71.42
86.16
95.13
99.92
101.28
99.45
94.78
88.29
81.54
76.21
73.35
73.03
74.28
75.65
75.85
74.15
70.63
65.89
60.72
55.70
50.97
46.15
40.54
33.40
24.23
13.14
0.79
-11.70
-23.19
-32.87
-40.63
-47.00
-53.00
-59.89
-68.83
-80.69
-95.66
-112.81
-129.77
-142.74
-147.36
-139.99
-119.29
-86.99
-47.63
-7.13
29.09
57.71
77.89
90.77
98.24
101.85
102.48
100.45
96.14
90.35
84.25
78.96
75.20
72.96
71.67
70.57
69.04
66.87
64.16
61.13
57.90
54.39
50.36
45.47
39.46
32.10
23.27
12.97
1.46
-10.75
-22.91
-34.20
-44.03
-52.19
-58.95
-64.95
-71.16
-78.64
-88.47
-101.27
-116.65
-132.62
-145.54
-150.78
-144.24
-123.93
-91.12
-50.27
-7.66
30.66
60.65
81.15
93.33
99.51
101.82
101.51
99.09
94.87
89.45
83.81
78.98
75.50
73.28
71.65
69.83
67.27
63.84
59.69
54.98
49.85
44.26
38.16
31.48
24.21
16.32
7.73
-1.60
-11.66
-22.26
-32.99
-43.38
-52.86
-61.01
-67.69
-73.10
-77.92
-83.17
-90.09
-99.77
-112.58
-127.54
-141.97
-151.71
-152.17
-139.86
-114.01
-77.19
-34.77
6.80
42.10
68.20
84.93
93.94
97.37
96.78
93.00
86.52
78.15
69.32
61.71
56.63
54.47
54.46
55.05
54.59
52.01
47.25
41.15
35.03
29.94
26.15
22.99
19.13
13.18
4.41
-6.95
-19.72
-32.27
-43.17
-51.67
-57.88
-62.62
-67.11
-72.67
-80.50
-91.39
-105.35
-121.07
-135.67
-144.94
-144.51
-131.28
-104.93
-68.42
-27.19
12.55
45.78
69.98
85.07
92.59
94.35
91.71
85.51
76.62
66.35
56.57
49.13
45.10
44.28
45.28
46.16
45.31
42.12
37.14
31.65
26.95
23.62
21.24
18.44
13.62
5.61
-5.69
-19.18
-32.99
-45.19
-54.54
-60.93
-65.35
-69.48
-75.16
-83.81
-96.02
-111.08
-126.69
-139.13
-143.97
-137.38
-117.61
-86.01
-46.84
-6.01
30.83
59.94
80.11
92.18
97.89
98.79
95.83
89.63
81.08
71.61
63.00
56.71
53.31
52.15
51.75
50.52
47.55
42.93
37.66
32.99
29.70
27.55
25.38
21.51
14.63
4.38
-8.40
-21.98
-34.45
-44.52
-51.96
-57.66
-63.24
-70.46
-80.69
-94.41
-110.84
-127.68
-141.27
-147.22
-141.69
-122.85
-91.86
-52.84
-11.70
25.81
55.77
76.80
89.63
95.98
97.48
95.18
89.84
82.40
74.20
66.79
61.31
57.93
55.92
53.99
51.06
46.85
41.92
37.26
33.68
31.12
28.62
24.67
17.94
7.98
-4.44
-17.69
-29.94
-39.89
-47.34
-53.19
-59.07
-66.80
-77.84
-92.66
-110.32
-128.14
-141.96
-147.09
-139.74
-118.56
-85.45
-45.17
-3.87
32.88
61.55
81.18
92.69
97.79
98.11
94.84
88.95
81.61
74.18
67.91
63.48
60.68
58.55
55.95
52.16
47.27
42.10
37.67
34.53
32.32
29.80
25.36
17.80
6.92
-6.34
-20.26
-33.07
-43.63
-51.82
-58.52
-65.37
-74.17
-86.30
-101.92
-119.44
-135.38
-145.02
-143.84
-129.20
-101.57
-64.63
-24.17
13.84
45.01
67.46
81.44
88.44
90.06
87.56
81.87
74.04
65.43
57.49
51.34
47.29
44.82
42.91
40.65
37.67
34.21
30.76
27.55
24.28
20.11
14.15
5.91
-4.35
-15.73
-27.01
-37.22
-45.98
-53.66
-61.34
-70.42
-82.23
-97.34
-114.86
-132.12
-144.85
-148.35
-139.10
-116.20
-82.06
-41.79
-1.56
33.33
59.81
77.31
87.09
91.08
90.93
87.75
82.34
75.55
68.46
62.11
57.16
53.60
50.83
48.07
44.88
41.38
38.09
35.43
33.23
30.62
26.29
19.16
8.93
-3.67
-17.12
-29.72
-40.24
-48.39
-54.94
-61.46
-69.83
-81.58
-97.08
-114.99
-132.08
-143.81
-145.58
-134.38
-110.02
-75.46
-35.94
2.75
36.02
61.56
79.25
90.35
96.30
98.09
96.30
91.54
84.96
78.19
72.84
69.75
68.58
67.95
66.21
62.32
56.46
49.88
44.20
40.48
38.57
37.13
34.21
28.11
18.21
5.13
-9.48
-23.65
-35.86
-45.53
-53.18
-60.17
-68.17
-78.71
-92.60
-109.37
-127.00
-141.89
-149.62
-146.22
-129.66
-100.83
-63.56
-23.46
13.99
45.04
68.45
84.96
96.21
103.50
107.30
107.59
104.47
98.76
92.03
86.03
82.02
80.26
79.94
79.60
77.89
74.18
68.74
62.62
56.95
52.41
48.77
45.00
39.68
31.72
20.82
7.62
-6.52
-20.10
-31.96
-41.74
-49.86
-57.30
-65.30
-75.07
-87.46
-102.69
-119.99
-137.29
-151.18
-157.58
-152.81
-135.11
-105.56
-68.05
-28.17
8.64
38.76
61.02
76.26
86.06
91.65
93.50
91.69
86.60
79.43
72.05
66.28
63.15
62.50
63.15
63.53
62.45
59.50
55.13
50.21
45.52
41.31
37.09
31.85
24.52
14.57
2.34
-11.00
-23.84
-34.79
-43.21
-49.46
-54.70
-60.50
-68.30
-79.07
-93.15
-109.86
-127.40
-142.70
-151.83
-150.91
-137.48
-111.59
-76.24
-36.58
1.73
34.25
58.89
75.90
86.92
93.67
97.15
97.57
94.88
89.50
82.57
75.72
70.47
67.55
66.72
67.00
67.16
66.25
63.90
60.28
55.83
51.01
46.05
40.79
34.83
27.60
18.73
8.25
-3.25
-14.82
-25.46
-34.51
-41.94
-48.29
-54.41
-61.20
-69.36
-79.47
-91.93
-106.69
-122.70
-137.47
-147.17
-147.56
-135.52
-110.57
-75.40
-35.21
4.01
37.47
62.77
80.05
90.97
97.41
100.61
101.02
98.76
94.28
88.54
82.79
78.11
74.96
73.10
71.92
70.80
69.38
67.61
65.50
62.93
59.56
55.01
49.01
41.64
33.24
24.28
15.12
5.89
-3.51
-13.21
-23.22
-33.29
-43.01
-51.90
-59.67
-66.41
-72.65
-79.34
-87.61
-98.44
-112.11
-127.54
-142.01
-151.46
-151.56
-139.26
-114.16
-78.97
-38.78
0.67
34.79
61.28
80.08
92.41
99.66
102.74
102.17
98.55
93.03
87.16
82.41
79.54
78.42
78.16
77.63
76.16
73.72
70.89
68.39
66.61
65.26
63.41
59.94
54.00
45.60
35.59
25.40
16.35
9.04
3.08
-2.66
-9.46
-18.07
-28.31
-39.21
-49.43
-57.86
-64.08
-68.53
-72.35
-77.11
-84.36
-95.16
-109.52
-125.86
-140.94
-150.34
-149.66
-136.07
-109.56
-73.28
-32.69
6.24
38.77
62.59
77.81
86.07
89.36
89.16
86.38
81.68
75.84
69.90
64.80
61.12
58.81
57.32
55.93
54.14
51.74
48.78
45.43
41.79
37.88
33.64
28.98
23.78
17.83
10.89
2.75
-6.67
-17.14
-28.19
-39.14
-49.28
-58.08
-65.34
-71.26
-76.40
-81.66
-88.16
-96.97
-108.69
-122.82
-137.34
-148.74
-152.65
-145.38
-125.35
-94.05
-55.78
-16.34
18.92
46.53
65.55
76.91
82.36
83.40
80.94
75.57
68.01
59.47
51.45
45.35
41.92
40.98
41.65
42.64
42.81
41.49
38.62
34.62
30.18
25.83
21.75
17.56
12.52
5.79
-3.10
-13.97
-25.87
-37.47
-47.50
-55.27
-60.94
-65.44
-70.07
-76.09
-84.43
-95.41
-108.63
-122.57
-134.56
-140.97
-138.11
-123.51
-97.15
-61.84
-22.59
14.95
46.25
69.06
83.39
90.70
92.79
90.95
86.05
78.84
70.45
62.43
56.27
52.87
52.09
52.78
53.34
52.40
49.42
44.82
39.67
35.12
31.78
29.39
26.95
23.11
16.74
7.49
-4.10
-16.74
-28.91
-39.37
-47.60
-53.95
-59.45
-65.45
-73.30
-83.96
-97.66
-113.47
-129.09
-140.94
-144.89
-137.54
-117.55
-86.46
-48.47
-9.10
26.48
54.93
75.15
87.83
94.32
95.87
93.34
87.43
79.26
70.40
62.63
57.30
54.76
54.30
54.46
53.73
51.23
47.02
41.94
37.15
33.42
30.70
28.01
23.90
17.09
7.06
-5.59
-19.37
-32.45
-43.40
-51.72
-57.95
-63.43
-69.86
-78.77
-91.05
-106.49
-123.40
-138.60
-147.85
-147.05
-133.59
-107.53
-71.91
-31.83
7.15
40.64
66.40
84.30
95.38
100.99
102.10
99.34
93.45
85.55
77.16
69.86
64.71
61.87
60.59
59.58
57.59
53.97
48.87
43.14
37.77
33.33
29.60
25.65
20.31
12.73
2.90
-8.33
-19.61
-29.68
-37.86
-44.38
-50.17
-56.56
-64.85
-75.94
-90.05
-106.35
-122.77
-135.99
-142.03
-137.34
-120.17
-91.47
-54.94
-15.95
20.13
49.56
70.88
84.57
92.02
94.53
92.90
87.71
79.81
70.68
62.18
55.91
52.56
51.71
52.04
52.08
50.86
48.29
45.02
41.88
39.26
36.79
33.34
27.62
18.77
6.95
-6.67
-20.28
-32.19
-41.49
-48.36
-53.93
-59.85
-67.77
-78.76
-93.02
-109.42
-125.37
-137.10
-140.41
-132.00
-110.75
-78.51
-39.71
-0.05
35.19
62.70
81.47
92.36
96.98
96.85
93.07
86.51
78.31
69.89
62.69
57.63
54.69
52.94
51.08
48.17
44.10
39.62
35.75
33.06
31.20
28.84
24.35
16.56
5.39
-8.09
-22.06
-34.75
-45.09
-53.08
-59.66
-66.37
-74.86
-86.36
-101.17
-118.12
-134.42
-146.02
-148.61
-139.09
-116.77
-83.93
-45.17
-6.04
28.73
56.31
75.98
88.54
95.30
97.40
95.61
90.68
83.75
76.37
70.13
66.06
64.18
63.52
62.59
60.12
55.65
49.68
43.32
37.71
33.36
29.93
26.25
20.86
12.60
1.20
-12.61
-27.27
-41.06
-52.70
-61.85
-69.13
-75.82
-83.45
-93.35
-106.23
-121.64
-137.68
-150.97
-157.25
-152.74
-135.53
-106.60
-69.73
-30.24
6.71
37.64
61.21
77.86
88.70
94.75
96.59
94.64
89.59
82.65
75.41
69.44
65.73
64.35
64.47
64.72
63.74
60.85
56.23
50.73
45.42
40.86
36.81
32.29
26.05
17.18
5.50
-8.37
-23.24
-37.79
-50.95
-62.16
-71.38
-79.10
-86.26
-94.07
-103.80
-116.29
-131.29
-146.94
-159.66
-164.93
-158.66
-138.77
-106.27
-65.12
-21.05
20.38
55.27
82.09
101.20
113.86
121.29
124.28
123.49
119.86
114.80
109.91
106.38
104.53
103.66
102.36
99.25
93.54
85.50
76.33
67.69
61.00
56.78
54.40
52.22
48.25
40.92
29.72
15.32
-0.64
-16.32
-30.24
-41.81
-51.33
-59.75
-68.36
-78.38
-90.51
-104.53
-118.89
-130.70
-136.26
-132.14
-116.50
-90.00
-55.87
-18.95
15.80
44.81
66.49
80.99
89.34
92.56
91.34
86.24
78.19
68.72
59.74
52.87
48.86
47.25
46.74
45.86
43.69
40.25
36.33
32.94
30.66
29.18
27.35
23.69
17.12
7.48
-4.26
-16.36
-27.01
-35.11
-40.67
-44.85
-49.43
-56.27
-66.65
-80.81
-97.59
-114.42
-127.49
-132.67
-126.60
-108.01
-78.39
-41.80
-3.63
31.01
58.68
78.17
90.01
95.55
96.12
92.73
86.31
78.04
69.53
62.34
57.47
54.94
53.78
52.51
49.91
45.57
40.02
34.44
29.89
26.72
24.25
21.05
15.63
7.11
-4.26
-17.22
-30.00
-41.12
-49.94
-56.85
-63.06
-70.10
-79.35
-91.62
-106.67
-122.98
-137.58
-146.49
-145.77
-132.86
-107.74
-73.28
-34.47
3.17
35.21
59.41
75.67
85.26
89.72
90.22
87.54
82.38
75.73
68.85
62.94
58.63
55.70
53.32
50.43
46.43
41.53
36.62
32.76
30.49
29.36
27.96
24.55
17.89
7.85
-4.44
-17.12
-28.43
-37.46
-44.39
-50.37
-56.96
-65.66
-77.40
-92.17
-108.57
-123.78
-133.83
-134.62
-123.34
-99.72
-66.40
-28.30
8.99
40.91
65.01
81.05
90.26
94.32
94.65
92.20
87.72
82.05
76.19
71.07
67.15
64.16
61.21
57.27
51.82
45.13
38.28
32.57
28.74
26.56
24.70
21.35
15.01
5.12
-7.68
-21.74
-35.10
-46.23
-54.56
-60.64
-65.91
-72.20
-81.16
-93.60
-109.01
-125.28
-138.88
-145.49
-141.27
-124.24
-95.20
-57.76
-17.38
20.34
51.22
73.30
86.70
92.67
92.75
88.30
80.59
71.05
61.40
53.20
47.41
43.98
41.98
40.09
37.35
33.46
28.87
24.35
20.39
16.84
12.96
7.72
0.33
-9.25
-20.34
-31.72
-42.12
-50.86
-58.01
-64.35
-71.16
-79.74
-90.99
-104.87
-120.01
-133.54
-141.49
-139.87
-126.06
-100.01
-64.59
-24.77
13.87
46.83
71.70
88.10
97.04
99.94
98.12
92.72
84.96
76.17
67.71
60.55
55.09
51.05
47.78
44.66
41.38
38.06
35.03
32.47
30.08
27.03
22.20
14.73
4.51
-7.66
-20.31
-31.91
-41.48
-48.97
-55.22
-61.70
-69.94
-81.07
-95.23
-111.06
-125.64
-134.88
-134.57
-121.96
-96.92
-62.32
-23.24
14.67
46.90
71.10
87.14
96.21
99.88
99.42
95.73
89.73
82.56
75.62
70.10
66.54
64.59
63.13
60.89
57.08
51.83
46.06
41.02
37.51
35.39
33.49
30.13
23.85
14.16
1.71
-11.90
-24.84
-35.75
-44.27
-51.05
-57.47
-65.18
-75.59
-89.34
-105.78
-122.64
-136.20
-142.07
-136.51
-117.92
-87.65
-49.86
-10.21
25.98
55.23
76.43
90.43
98.80
102.91
103.51
100.97
95.78
88.98
81.94
76.01
71.95
69.70
68.49
67.30
65.31
62.17
58.08
53.55
49.09
44.96
41.05
36.85
31.64
24.74
15.79
4.97
-7.02
-19.14
-30.36
-39.95
-47.74
-54.07
-59.67
-65.57
-72.90
-82.73
-95.60
-111.06
-127.07
-140.03
-145.50
-139.59
-120.52
-89.62
-51.06
-10.58
26.39
56.29
77.94
92.05
100.16
103.57
103.11
99.40
93.37
86.46
80.29
76.08
74.09
73.59
73.34
72.27
70.02
67.01
64.09
61.91
60.55
59.33
57.20
53.13
46.62
37.92
27.97
18.00
9.09
1.61
-4.82
-11.18
-18.51
-27.36
-37.46
-47.81
-57.18
-64.57
-69.74
-73.22
-76.24
-80.42
-87.37
-98.20
-112.91
-129.92
-145.79
-155.86
-155.46
-141.57
-114.11
-76.29
-33.67
7.52
42.30
68.04
84.58
93.29
96.06
94.42
89.50
82.31
74.10
66.35
60.36
56.70
55.05
54.37
53.58
52.11
50.17
48.40
47.39
47.13
46.95
45.72
42.41
36.55
28.34
18.69
8.85
-0.10
-7.54
-13.61
-19.04
-24.84
-31.74
-39.82
-48.44
-56.67
-63.70
-69.33
-74.04
-78.83
-84.85
-93.13
-104.12
-117.30
-130.83
-141.48
-145.26
-138.67
-119.97
-90.20
-53.03
-13.69
22.80
52.87
75.07
89.57
97.38
99.58
97.11
90.92
82.27
72.82
64.34
58.19
54.93
54.14
54.74
55.48
55.54
54.75
53.47
52.14
50.85
49.12
46.08
40.94
33.50
24.34
14.61
5.62
-1.83
-7.70
-12.74
-18.19
-25.08
-33.79
-43.78
-53.84
-62.60
-69.17
-73.56
-76.71
-80.13
-85.48
-94.12
-106.50
-121.75
-137.29
-149.04
-152.29
-143.25
-120.57
-86.24
-45.12
-3.44
33.25
61.58
80.68
91.52
95.84
95.24
90.99
84.25
76.30
68.63
62.51
58.66
56.95
56.66
56.70
56.25
54.98
53.05
50.87
48.71
46.47
43.71
39.84
34.53
27.89
20.44
12.72
5.04
-2.65
-10.68
-19.32
-28.54
-37.93
-46.86
-54.74
-61.27
-66.59
-71.30
-76.43
-83.27
-92.99
-106.06
-121.53
-136.72
-147.49
-149.31
-138.86
-115.37
-81.17
-41.14
-1.19
33.54
60.03
77.69
87.78
92.31
93.00
90.90
86.58
80.60
73.83
67.47
62.53
59.50
58.13
57.62
57.08
55.91
53.97
51.45
48.60
45.52
42.09
38.11
33.28
27.34
20.08
11.39
1.35
-9.59
-20.68
-31.03
-39.90
-47.00
-52.67
-57.70
-63.29
-70.57
-80.46
-93.18
-108.01
-122.94
-134.79
-139.80
-134.67
-117.82
-90.23
-55.34
-18.17
16.27
44.35
64.51
77.05
83.25
84.49
81.84
76.06
68.15
59.50
51.75
46.27
43.62
43.26
43.91
44.04
42.67
39.66
35.66
31.63
28.25
25.55
22.81
18.83
12.49
3.28
-8.39
-21.26
-33.64
-44.07
-51.86
-57.31
-61.58
-66.22
-72.72
-82.19
-94.93
-110.17
-125.76
-138.30
-143.75
-138.65
-121.43
-93.29
-58.01
-20.82
13.35
41.13
61.31
74.35
81.44
83.73
82.03
77.09
69.92
62.03
55.09
50.36
48.27
48.18
48.69
48.31
46.14
42.18
37.35
32.84
29.47
27.09
24.65
20.58
13.59
3.37
-9.26
-22.59
-34.76
-44.52
-51.66
-56.98
-61.96
-68.22
-77.08
-89.12
-103.79
-119.28
-132.50
-139.66
-137.32
-123.58
-98.98
-66.50
-30.72
3.66
33.16
56.15
72.69
83.68
90.10
92.56
91.52
87.62
81.97
76.05
71.23
68.23
66.86
66.17
64.96
62.40
58.45
53.81
49.47
46.09
43.49
40.66
36.13
28.70
18.06
5.04
-8.75
-21.57
-32.23
-40.48
-47.02
-53.16
-60.37
-69.92
-82.48
-97.77
-114.22
-128.88
-137.93
-137.65
-125.82
-102.63
-70.92
-35.34
-0.75
29.21
52.90
70.51
83.14
91.89
97.32
99.45
98.36
94.54
89.10
83.45
78.82
75.85
74.42
73.85
73.29
72.03
69.81
66.71
63.01
58.97
54.68
49.97
44.48
37.85
29.78
20.28
9.65
-1.50
-12.39
-22.30
-30.82
-37.90
-43.94
-49.69
-56.14
-64.34
-75.17
-88.90
-104.69
-120.31
-132.24
-136.53
-130.05
-111.75
-83.28
-48.58
-12.64
20.08
46.78
66.69
80.46
89.33
94.37
96.22
95.32
92.26
87.97
83.59
80.03
77.67
76.32
75.38
74.28
72.81
71.07
69.32
67.56
65.44
62.32
57.60
51.07
43.07
34.35
25.73
17.76
10.44
3.32
-4.21
-12.68
-22.14
-32.14
-41.83
-50.33
-57.16
-62.43
-66.99
-72.23
-79.63
-90.26
-104.09
-119.65
-133.89
-142.81
-142.49
-130.51
-106.94
-74.57
-38.15
-2.84
27.34
50.41
66.41
76.57
82.37
84.83
84.53
81.94
77.78
73.08
68.91
65.98
64.43
63.82
63.50
62.92
61.84
60.32
58.48
56.35
53.71
50.16
45.37
39.23
31.98
24.09
16.09
8.28
0.68
-6.92
-14.75
-22.91
-31.21
-39.24
-46.56
-52.94
-58.51
-63.91
-70.12
-78.32
-89.38
-103.27
-118.63
-132.67
-141.61
-141.81
-131.10
-109.65
-80.17
-47.11
-15.24
11.77
32.12
45.91
54.36
58.99
60.93
60.84
59.14
56.40
53.41
51.03
49.92
50.24
51.69
53.74
55.95
58.17
60.47
62.88
65.13
66.62
66.51
64.13
59.29
52.37
44.17
35.58
27.22
19.26
11.55
3.73
-4.40
-12.75
-20.96
-28.54
-35.16
-40.83
-46.06
-51.69
-58.76
-68.13
-80.04
-93.68
-106.94
-116.65
-119.29
-112.14
-94.46
-67.95
-36.42
-4.58
23.45
45.31
60.62
70.37
76.03
78.70
78.94
77.06
73.50
69.09
64.83
61.51
59.37
58.15
57.26
56.23
54.87
53.33
51.78
50.20
48.22
45.25
40.77
34.62
27.16
19.14
11.37
4.35
-1.98
-8.10
-14.63
-21.91
-29.81
-37.73
-44.97
-51.02
-55.88
-60.07
-64.50
-70.27
-78.30
-88.93
-101.44
-113.76
-122.67
-124.52
-116.43
-97.57
-69.66
-36.63
-3.41
25.67
47.99
63.03
71.76
75.77
76.36
74.34
70.17
64.43
58.07
52.24
47.99
45.79
45.39
46.01
46.64
46.53
45.34
43.10
40.08
36.53
32.53
28.08
23.04
17.26
10.59
2.91
-5.72
-15.05
-24.63
-33.86
-42.14
-49.07
-54.61
-59.08
-63.15
-67.78
-73.97
-82.51
-93.47
-105.80
-117.16
-124.23
-123.61
-112.95
-92.03
-63.03
-30.04
2.20
29.76
50.41
63.81
70.93
73.17
71.69
67.29
60.64
52.71
44.91
38.76
35.33
34.72
35.93
37.38
37.55
35.71
32.07
27.62
23.47
20.25
17.84
15.38
11.73
5.96
-2.23
-12.33
-23.26
-33.68
-42.57
-49.52
-54.89
-59.61
-64.89
-71.83
-81.14
-92.81
-105.89
-118.30
-127.00
-128.62
-120.51
-101.76
-73.90
-40.61
-6.60
23.76
47.70
64.38
74.46
79.27
80.01
77.47
72.31
65.38
57.96
51.53
47.27
45.57
45.87
46.87
47.17
45.80
42.71
38.59
34.48
31.10
28.41
25.57
21.30
14.58
5.12
-6.36
-18.47
-29.65
-38.83
-45.77
-51.12
-56.13
-62.26
-70.75
-82.22
-96.29
-111.39
-124.71
-132.68
-131.87
-120.14
-97.50
-66.42
-31.15
3.50
33.53
56.70
72.60
82.11
86.55
87.03
84.34
79.16
72.34
65.07
58.67
54.09
51.62
50.72
50.31
49.29
47.00
43.48
39.39
35.53
32.39
29.74
26.62
21.80
14.26
3.80
-8.77
-21.93
-33.97
-43.66
-50.74
-55.98
-60.87
-67.13
-76.14
-88.44
-103.40
-119.02
-132.10
-138.85
-135.86
-121.25
-95.52
-61.67
-24.38
11.34
41.61
64.51
80.02
89.31
93.84
94.68
92.49
87.86
81.61
74.95
69.13
65.03
62.79
61.73
60.77
58.99
56.04
52.29
48.54
45.43
43.01
40.53
36.69
30.26
20.59
8.04
-6.14
-20.15
-32.34
-41.78
-48.55
-53.72
-58.97
-66.10
-76.44
-90.40
-106.97
-123.59
-136.51
-141.51
-135.19
-116.30
-86.40
-49.61
-11.41
23.12
50.63
70.01
82.00
88.09
89.69
87.78
83.09
76.51
69.31
62.88
58.23
55.65
54.51
53.70
52.13
49.21
45.11
40.56
36.43
33.16
30.47
27.34
22.39
14.57
3.66
-9.47
-23.16
-35.57
-45.47
-52.61
-57.84
-62.72
-69.01
-78.12
-90.68
-106.15
-122.57
-136.60
-144.11
-141.22
-125.75
-98.17
-61.85
-22.10
15.48
46.67
69.53
84.34
92.59
95.89
95.34
91.52
85.03
76.91
68.70
62.00
57.86
56.28
56.23
56.18
54.74
51.32
46.30
40.70
35.57
31.36
27.62
23.12
16.50
6.92
-5.39
-19.18
-32.66
-44.21
-53.10
-59.65
-65.09
-71.04
-79.02
-89.97
-104.03
-120.20
-136.24
-148.70
-153.63
-147.61
-129.06
-99.05
-61.28
-20.97
16.71
48.14
71.84
88.19
98.46
103.93
105.44
103.49
98.72
92.17
85.29
79.53
75.86
74.40
74.45
74.79
74.19
71.89
67.76
62.28
56.23
50.30
44.72
39.21
33.06
25.42
15.72
3.96
-9.21
-22.63
-35.04
-45.53
-53.88
-60.63
-66.93
-74.13
-83.46
-95.66
-110.64
-127.07
-142.31
-152.62
-153.96
-143.37
-120.09
-86.28
-46.48
-6.24
29.63
58.28
79.15
93.26
102.13
106.94
108.27
106.45
102.07
96.18
90.14
85.22
82.07
80.57
79.96
79.22
77.56
74.63
70.54
65.66
60.39
54.89
49.03
42.46
34.67
25.34
14.39
2.14
-10.66
-23.05
-34.10
-43.26
-50.56
-56.61
-62.51
-69.49
-78.65
-90.63
-105.31
-121.40
-136.35
-146.51
-148.02
-137.99
-115.76
-83.43
-45.48
-7.30
26.42
52.94
71.78
84.07
91.39
94.96
95.32
92.65
87.40
80.57
73.64
68.04
64.64
63.41
63.49
63.71
62.93
60.58
56.63
51.49
45.69
39.63
33.42
26.94
19.83
11.73
2.39
-8.15
-19.49
-30.96
-41.73
-51.15
-58.92
-65.30
-71.02
-77.15
-84.87
-95.10
-108.16
-123.24
-138.14
-149.40
-152.98
-145.51
-125.62
-94.75
-56.93
-17.57
18.21
47.03
67.74
81.06
88.54
91.66
91.41
88.44
83.46
77.53
71.90
67.72
65.59
65.42
66.53
67.97
68.87
68.64
67.02
64.03
59.85
54.69
48.77
42.30
35.38
28.01
20.05
11.37
1.85
-8.39
-19.00
-29.44
-39.17
-47.80
-55.22
-61.65
-67.61
-74.02
-82.04
-92.75
-106.59
-122.63
-138.12
-148.89
-150.48
-139.68
-116.05
-82.22
-43.19
-4.64
28.79
54.66
72.72
84.17
90.65
93.45
93.35
90.91
86.77
81.89
77.30
73.81
71.66
70.54
69.77
68.75
67.20
65.20
62.91
60.35
57.20
52.95
47.17
39.81
31.33
22.46
13.87
5.83
-1.90
-9.86
-18.51
-27.91
-37.64
-46.95
-55.13
-61.82
-67.23
-72.11
-77.65
-85.16
-95.65
-109.26
-124.64
-138.77
-147.36
-146.06
-132.01
-105.12
-68.46
-27.39
12.16
45.52
70.42
86.99
96.80
101.75
103.20
101.82
98.03
92.39
85.83
79.48
74.22
70.49
68.10
66.54
65.22
63.73
61.85
59.48
56.53
52.86
48.28
42.68
36.02
28.33
19.70
10.21
-0.03
-10.76
-21.56
-31.86
-41.05
-48.71
-54.82
-59.80
-64.44
-69.77
-76.85
-86.55
-99.14
-113.84
-128.42
-139.31
-142.34
-134.14
-113.50
-82.17
-44.55
-6.25
27.64
53.98
71.97
82.60
87.51
88.13
85.34
79.73
72.09
63.62
55.78
49.92
46.70
45.91
46.56
47.36
47.21
45.59
42.63
38.86
34.87
30.89
26.73
21.80
15.44
7.23
-2.79
-14.11
-25.87
-37.10
-46.98
-55.07
-61.36
-66.34
-70.88
-76.15
-83.41
-93.60
-106.78
-121.54
-134.95
-142.91
-141.42
-127.96
-102.67
-68.54
-30.52
6.03
36.97
60.22
75.73
84.64
88.34
87.89
84.05
77.58
69.61
61.58
54.98
50.79
49.19
49.46
50.36
50.63
49.42
46.62
42.71
38.52
34.67
31.30
27.87
23.38
16.81
7.63
-3.88
-16.64
-29.17
-40.13
-48.80
-55.33
-60.54
-65.67
-72.01
-80.63
-92.15
-106.30
-121.57
-135.03
-142.76
-140.88
-126.96
-101.16
-66.47
-27.86
9.30
40.87
64.82
81.13
90.94
95.58
96.08
93.15
87.58
80.48
73.27
67.29
63.36
61.49
60.98
60.72
59.67
57.26
53.57
49.20
44.92
41.25
38.07
34.54
29.40
21.54
10.57
-2.82
-17.07
-30.35
-41.24
-49.27
-55.03
-59.83
-65.26
-72.79
-83.36
-97.12
-113.01
-128.56
-140.08
-143.43
-135.35
-114.78
-83.52
-45.89
-7.40
27.01
54.27
73.53
85.61
91.99
93.98
92.42
87.97
81.52
74.41
68.11
63.74
61.61
61.03
60.78
59.60
56.86
52.82
48.36
44.50
41.75
39.77
37.41
33.19
25.98
15.52
2.64
-11.03
-23.72
-34.13
-41.95
-47.88
-53.26
-59.72
-68.60
-80.59
-95.39
-111.34
-125.46
-133.86
-132.79
-119.94
-95.46
-62.24
-25.11
10.67
40.92
63.47
78.11
85.88
88.14
86.06
80.61
72.84
64.12
55.97
49.67
45.80
43.99
43.17
42.07
39.88
36.58
32.85
29.54
27.07
25.01
22.21
17.28
9.33
-1.57
-14.33
-27.25
-38.71
-47.80
-54.60
-60.19
-66.19
-74.32
-85.77
-100.62
-117.45
-133.20
-143.75
-144.97
-134.15
-111.13
-78.59
-41.37
-4.93
26.22
49.61
64.89
73.20
76.11
74.99
70.86
64.58
57.21
50.03
44.21
40.38
38.44
37.65
37.10
36.17
34.77
33.12
31.47
29.65
26.98
22.53
15.54
5.86
-5.90
-18.46
-30.34
-40.34
-48.05
-54.00
-59.58
-66.69
-76.99
-91.23
-108.52
-126.09
-139.73
-144.86
-138.02
-118.22
-87.46
-50.28
-12.25
21.68
48.51
67.45
79.36
85.73
87.84
86.55
82.56
76.75
70.31
64.48
60.07
57.22
55.35
53.64
51.45
48.64
45.53
42.51
39.62
36.39
31.89
25.22
15.99
4.62
-7.77
-19.78
-30.30
-38.90
-46.03
-52.82
-60.74
-71.18
-84.80
-101.03
-117.71
-131.19
-137.21
-132.22
-114.82
-86.45
-51.16
-14.20
19.67
47.57
68.79
84.16
94.98
102.05
105.55
105.36
101.76
95.79
89.09
83.34
79.60
77.89
77.26
76.33
73.99
69.90
64.57
59.00
54.07
49.97
46.01
40.94
33.51
23.16
10.32
-3.68
-17.17
-28.79
-37.99
-45.16
-51.42
-58.12
-66.57
-77.66
-91.63
-107.81
-124.30
-137.97
-144.91
-141.53
-125.88
-98.67
-63.32
-25.00
11.10
41.31
64.26
80.61
91.98
99.83
104.87
107.12
106.51
103.37
98.59
93.40
88.91
85.68
83.61
82.16
80.65
78.57
75.70
72.08
67.81
62.98
57.51
51.30
44.27
36.34
27.50
17.75
7.14
-4.08
-15.43
-26.25
-35.88
-43.96
-50.65
-56.59
-62.78
-70.35
-80.25
-92.93
-107.98
-123.73
-137.17
-144.42
-141.75
-127.05
-100.83
-66.41
-28.94
6.25
35.35
56.89
71.44
80.65
86.09
88.60
88.40
85.64
80.86
75.11
69.69
65.65
63.40
62.66
62.65
62.46
61.39
59.08
55.50
50.84
45.36
39.28
32.71
25.69
18.19
10.14
1.50
-7.72
-17.37
-27.09
-36.46
-45.01
-52.46
-58.85
-64.59
-70.37
-77.08
-85.58
-96.43
-109.45
-123.36
-135.58
-142.56
-140.70
-127.67
-103.48
-70.86
-34.55
0.19
29.23
50.61
64.58
72.73
76.93
78.44
77.79
75.10
70.68
65.29
60.06
56.04
53.83
53.28
53.65
53.99
53.51
51.86
49.11
45.59
41.63
37.30
32.47
26.86
20.22
12.52
3.99
-5.00
-14.01
-22.68
-30.79
-38.24
-44.97
-51.00
-56.44
-61.64
-67.33
-74.47
-83.99
-96.24
-110.32
-123.81
-133.07
-134.15
-124.19
-102.66
-71.79
-36.13
-1.04
29.02
51.66
66.82
76.11
81.56
84.62
85.88
85.32
82.92
79.08
74.57
70.20
66.53
63.62
61.25
59.17
57.28
55.58
54.02
52.33
50.02
46.59
41.77
35.62
28.48
20.80
12.84
4.59
-4.11
-13.38
-23.05
-32.65
-41.53
-49.12
-55.25
-60.23
-64.84
-70.14
-77.24
-86.89
-99.07
-112.56
-124.76
-132.08
-130.86
-118.72
-95.61
-64.15
-28.88
5.11
33.80
55.15
69.21
77.35
81.27
82.30
81.16
78.28
74.04
69.05
64.09
59.89
56.84
54.94
53.78
52.80
51.44
49.40
46.69
43.53
40.20
36.82
33.20
28.84
23.09
15.46
5.89
-5.11
-16.59
-27.37
-36.52
-43.61
-48.87
-53.08
-57.36
-62.82
-70.37
-80.50
-92.94
-106.44
-118.61
-126.19
-125.83
-115.23
-94.11
-64.65
-30.96
2.17
30.67
52.28
66.61
74.58
77.56
76.71
72.84
66.67
59.15
51.53
45.13
40.82
38.79
38.36
38.37
37.70
35.75
32.61
28.95
25.55
22.77
20.28
17.11
12.11
4.50
-5.63
-17.31
-29.00
-39.22
-47.09
-52.66
-56.75
-60.70
-65.91
-73.50
-84.00
-97.04
-111.07
-123.35
-130.39
-128.81
-116.56
-93.80
-63.12
-28.92
3.99
31.77
52.37
65.55
72.27
73.84
71.45
66.08
58.81
50.94
43.90
38.77
35.95
34.98
34.83
34.42
33.10
30.82
28.05
25.35
22.97
20.59
17.44
12.52
5.10
-4.85
-16.55
-28.56
-39.30
-47.71
-53.65
-58.01
-62.44
-68.76
-78.27
-91.19
-106.21
-120.55
-130.40
-131.93
-122.51
-101.71
-71.66
-36.48
-1.05
30.41
55.27
72.67
83.02
87.34
86.79
82.55
75.97
68.58
61.87
56.92
54.09
52.93
52.50
51.75
50.00
47.19
43.75
40.29
37.15
34.09
30.29
24.69
16.48
5.63
-7.04
-20.06
-31.96
-41.81
-49.66
-56.43
-63.65
-72.84
-84.93
-99.76
-115.64
-129.47
-137.28
-135.43
-121.84
-96.99
-63.96
-27.57
7.18
36.56
58.86
74.21
83.77
88.81
90.16
88.35
83.95
77.96
71.72
66.51
63.05
61.21
60.09
58.58
55.98
52.29
48.20
44.49
41.51
38.78
35.18
29.45
20.89
9.72
-2.93
-15.47
-26.50
-35.27
-42.00
-47.72
-53.99
-62.40
-74.02
-88.91
-105.65
-121.32
-131.97
-133.68
-123.83
-102.18
-71.11
-35.10
0.66
31.92
56.29
73.42
84.33
90.41
92.68
91.71
88.00
82.38
76.12
70.50
66.35
63.70
61.88
59.93
57.20
53.62
49.66
45.98
42.98
40.53
37.86
33.76
27.07
17.17
4.38
-9.98
-24.00
-35.92
-44.76
-50.81
-55.43
-60.61
-68.21
-79.31
-93.75
-109.84
-124.51
-133.84
-134.05
-122.70
-99.69
-67.61
-30.98
4.99
36.02
59.62
75.26
83.78
86.57
84.99
80.21
73.46
66.05
59.36
54.47
51.76
50.78
50.47
49.66
47.59
44.18
39.99
35.78
32.02
28.55
24.55
18.90
10.78
0.09
-12.36
-25.11
-36.62
-45.88
-52.82
-58.29
-63.85
-71.21
-81.68
-95.53
-111.61
-127.13
-138.18
-140.64
-131.59
-110.48
-79.55
-43.28
-6.91
25.14
50.40
68.48
80.30
87.16
89.95
89.10
85.01
78.60
71.36
65.07
61.08
59.76
60.39
61.50
61.64
59.97
56.54
52.13
47.66
43.67
39.91
35.51
29.34
20.66
9.52
-3.09
-15.66
-26.73
-35.53
-42.26
-48.03
-54.38
-62.76
-74.09
-88.38
-104.55
-120.27
-132.21
-136.71
-130.72
-113.10
-85.18
-50.63
-14.37
19.03
46.58
67.38
82.16
92.24
98.65
101.75
101.50
98.01
92.03
84.93
78.42
73.78
71.48
70.92
70.86
69.93
67.27
62.85
57.29
51.44
45.88
40.58
34.96
28.17
19.58
9.06
-2.92
-15.42
-27.32
-37.73
-46.22
-52.96
-58.68
-64.46
-71.51
-80.88
-93.15
-108.00
-123.86
-137.81
-145.97
-144.47
-130.89
-105.30
-70.64
-31.91
5.46
37.23
61.41
78.23
89.15
95.78
99.15
99.61
97.33
92.80
87.04
81.34
76.83
74.03
72.75
72.29
71.79
70.58
68.31
64.99
60.79
55.90
50.41
44.27
37.33
29.39
20.32
10.13
-0.95
-12.43
-23.63
-33.86
-42.60
-49.75
-55.64
-60.99
-66.73
-73.89
-83.32
-95.52
-110.17
-125.69
-139.04
-146.19
-143.15
-127.53
-99.65
-62.89
-22.74
15.01
46.00
68.32
82.41
90.01
93.01
92.65
89.53
84.09
77.03
69.55
63.04
58.56
56.47
56.26
56.87
57.10
56.06
53.38
49.28
44.24
38.79
33.19
27.35
20.84
13.13
3.85
-6.95
-18.69
-30.40
-40.98
-49.65
-56.20
-61.10
-65.36
-70.19
-76.74
-85.83
-97.76
-111.98
-126.79
-139.20
-145.43
-141.78
-126.08
-98.67
-62.72
-23.37
13.85
44.67
67.03
81.07
88.25
90.30
88.53
83.76
76.66
68.22
59.84
53.05
48.95
47.78
48.77
50.45
51.26
50.16
47.01
42.43
37.42
32.73
28.47
24.02
18.30
10.38
-0.06
-12.44
-25.42
-37.41
-47.17
-54.27
-59.24
-63.33
-68.13
-75.09
-85.18
-98.45
-113.80
-128.73
-139.57
-142.26
-133.56
-112.38
-80.51
-42.30
-3.36
31.18
58.13
76.69
87.89
93.49
95.00
93.26
88.70
81.88
73.87
66.13
60.13
56.72
55.80
56.42
57.18
56.83
54.77
51.17
46.73
42.23
38.01
33.76
28.56
21.39
11.61
-0.59
-14.14
-27.46
-39.04
-47.97
-54.29
-58.86
-63.11
-68.54
-76.43
-87.52
-101.64
-117.38
-131.94
-141.42
-141.73
-129.97
-105.63
-71.14
-31.29
8.18
42.38
68.47
85.98
96.10
100.61
101.02
98.23
92.87
85.72
77.99
71.06
66.08
63.39
62.43
62.00
60.83
58.19
54.17
49.51
45.13
41.54
38.49
34.93
29.49
21.06
9.41
-4.59
-19.25
-32.68
-43.53
-51.40
-57.00
-61.70
-67.13
-74.79
-85.65
-99.83
-116.25
-132.33
-144.18
-147.50
-138.83
-117.07
-84.09
-44.46
-3.98
32.02
60.07
79.08
89.71
93.52
92.06
86.64
78.46
68.94
59.73
52.38
47.85
46.08
46.07
46.30
45.50
43.16
39.66
35.86
32.51
29.65
26.51
21.85
14.53
4.14
-8.72
-22.60
-35.77
-46.85
-55.29
-61.60
-67.11
-73.65
-82.89
-95.76
-111.77
-128.69
-142.72
-149.28
-144.42
-126.24
-95.79
-57.01
-15.53
22.91
54.07
75.88
88.37
92.89
91.26
85.27
76.56
66.74
57.37
49.80
44.78
42.27
41.47
41.20
40.43
38.67
36.07
33.07
29.97
26.60
22.22
15.92
7.09
-4.17
-16.96
-29.91
-41.69
-51.51
-59.45
-66.41
-73.87
-83.41
-96.11
-111.88
-128.95
-143.80
-151.85
-148.77
-132.15
-102.57
-63.77
-21.54
18.13
50.74
74.21
88.70
95.71
97.02
94.13
88.25
80.54
72.31
64.87
59.16
55.43
53.21
51.61
49.85
47.59
45.01
42.55
40.43
38.36
35.42
30.41
22.41
11.28
-2.18
-16.45
-29.83
-41.16
-50.20
-57.75
-65.40
-74.94
-87.65
-103.66
-121.36
-137.38
-147.25
-146.59
-132.64
-105.46
-68.13
-25.95
15.22
50.59
77.52
95.55
105.74
109.76
109.16
105.20
99.01
91.74
84.58
78.46
73.79
70.39
67.61
64.74
61.43
57.76
54.13
50.83
47.71
44.01
38.63
30.63
19.72
6.45
-7.87
-21.71
-33.88
-43.97
-52.48
-60.69
-70.27
-82.62
-98.21
-115.91
-132.78
-144.53
-146.63
-135.89
-111.71
-76.66
-35.75
5.13
40.98
68.92
88.35
100.29
106.26
107.54
104.92
99.12
91.11
82.34
74.33
68.22
64.34
62.06
60.28
57.96
54.60
50.42
45.96
41.64
37.28
32.04
24.86
14.97
2.48
-11.57
-25.56
-37.94
-47.90
-55.67
-62.53
-70.27
-80.63
-94.60
-111.77
-129.94
-145.36
-153.40
-149.98
-132.99
-103.34
-64.91
-23.41
15.47
47.63
71.39
87.15
96.37
100.43
100.23
96.32
89.47
81.06
72.89
66.57
62.86
61.35
60.78
59.68
57.20
53.37
48.92
44.69
40.98
37.29
32.44
25.19
14.89
1.91
-12.47
-26.46
-38.53
-47.95
-55.09
-61.24
-68.21
-77.79
-91.10
-108.02
-126.70
-143.58
-153.94
-153.27
-138.86
-111.04
-73.42
-31.81
7.72
40.71
65.34
82.13
92.88
99.29
102.22
101.88
98.37
92.41
85.43
79.18
75.06
73.47
73.74
74.40
73.93
71.37
66.67
60.59
54.26
48.57
43.69
38.95
33.16
25.13
14.34
1.14
-13.18
-26.99
-38.88
-48.21
-55.24
-61.00
-66.85
-74.17
-84.00
-96.84
-112.32
-128.86
-143.48
-152.20
-151.00
-137.20
-110.70
-74.34
-33.23
6.87
41.31
67.63
85.70
96.95
103.21
105.94
106.00
103.92
100.26
95.83
91.55
88.11
85.73
84.13
82.74
81.09
78.93
76.28
73.25
69.79
65.66
60.50
54.04
46.29
37.53
28.25
18.83
9.52
0.24
-9.17
-18.82
-28.63
-38.25
-47.18
-54.98
-61.51
-67.09
-72.57
-79.23
-88.42
-101.02
-116.75
-133.65
-148.10
-155.52
-151.79
-134.79
-105.37
-67.35
-26.34
12.00
43.65
66.94
82.31
91.43
96.03
97.34
96.02
92.56
87.61
82.11
77.05
73.13
70.55
68.98
67.84
66.58
64.89
62.73
60.12
57.03
53.25
48.51
42.67
35.75
27.93
19.41
10.30
0.64
-9.47
-19.73
-29.63
-38.60
-46.23
-52.51
-57.82
-62.91
-68.73
-76.27
-86.25
-98.78
-112.86
-126.13
-135.04
-135.75
-125.47
-103.69
-72.65
-36.83
-1.49
28.88
51.78
66.84
75.21
78.60
78.42
75.57
70.56
64.06
57.02
50.71
46.26
44.23
44.36
45.59
46.57
46.20
44.08
40.49
36.18
31.89
27.90
23.95
19.37
13.41
5.60
-3.99
-14.73
-25.54
-35.28
-43.11
-48.81
-52.88
-56.35
-60.49
-66.46
-75.04
-86.36
-99.68
-113.09
-123.61
-127.69
-122.19
-105.69
-79.22
-46.29
-11.82
19.39
44.06
61.08
71.14
75.84
76.77
74.99
71.09
65.56
59.12
52.79
47.55
44.09
42.40
41.88
41.58
40.60
38.50
35.37
31.70
28.01
24.59
21.28
17.56
12.72
6.22
-2.10
-11.91
-22.49
-32.85
-42.06
-49.50
-55.08
-59.25
-62.87
-67.10
-73.06
-81.59
-92.87
-105.95
-118.62
-127.53
-128.99
-120.18
-100.28
-71.06
-36.55
-1.81
28.67
52.09
67.78
76.66
80.36
80.35
77.59
72.71
66.34
59.40
53.05
48.30
45.73
45.12
45.65
46.26
45.99
44.41
41.63
38.11
34.34
30.59
26.68
22.12
16.29
8.76
-0.48
-10.90
-21.59
-31.52
-39.89
-46.40
-51.33
-55.46
-59.91
-65.87
-74.27
-85.51
-98.99
-112.87
-124.12
-129.04
-124.37
-108.43
-82.03
-48.41
-12.40
21.10
48.48
68.10
80.18
86.01
87.10
84.64
79.54
72.69
65.18
58.30
53.14
50.22
49.26
49.25
48.96
47.42
44.34
40.16
35.80
32.09
29.31
26.97
23.92
18.94
11.21
0.79
-11.34
-23.67
-34.74
-43.61
-50.17
-55.07
-59.47
-64.65
-71.83
-81.72
-94.27
-108.22
-121.03
-129.18
-129.04
-118.03
-95.77
-64.49
-28.55
6.88
37.29
60.05
74.57
81.77
83.17
80.20
73.97
65.58
56.38
47.96
41.75
38.46
37.77
38.39
38.76
37.72
35.04
31.34
27.63
24.63
22.28
19.70
15.60
8.94
-0.55
-12.10
-24.23
-35.33
-44.29
-50.87
-55.79
-60.36
-66.07
-74.20
-85.38
-99.21
-113.89
-126.23
-132.25
-128.31
-112.48
-85.53
-50.99
-14.08
19.91
47.19
66.18
77.20
81.67
81.13
76.85
69.93
61.57
53.21
46.23
41.53
39.17
38.32
37.76
36.46
34.05
30.88
27.67
24.95
22.63
19.94
15.76
9.16
-0.10
-11.38
-23.39
-34.68
-44.21
-51.79
-58.08
-64.42
-72.35
-83.05
-96.78
-112.34
-126.98
-136.83
-137.90
-127.41
-104.94
-72.83
-35.54
1.62
34.09
59.14
76.11
85.84
89.82
89.52
86.15
80.71
74.26
67.90
62.56
58.72
56.26
54.47
52.51
49.81
46.34
42.63
39.26
36.49
33.85
30.22
24.37
15.56
4.03
-8.95
-21.66
-32.54
-40.92
-47.25
-52.91
-59.69
-69.17
-82.17
-98.22
-115.29
-129.94
-137.98
-135.59
-120.68
-93.84
-58.39
-19.46
17.57
48.65
71.85
87.29
96.25
100.32
100.72
98.31
93.94
88.63
83.55
79.61
77.09
75.49
73.84
71.23
67.27
62.31
57.13
52.42
48.29
44.10
38.72
31.06
20.70
8.14
-5.28
-17.94
-28.55
-36.72
-43.11
-49.23
-56.95
-67.81
-82.36
-99.69
-117.20
-131.02
-136.92
-131.56
-113.74
-85.04
-49.44
-12.21
21.77
49.17
68.83
81.25
87.81
89.96
88.81
85.25
80.11
74.41
69.08
64.78
61.58
59.03
56.46
53.32
49.52
45.34
41.24
37.36
33.33
28.33
21.41
12.07
0.57
-12.02
-24.24
-34.81
-43.21
-49.86
-56.09
-63.62
-73.94
-87.76
-104.45
-121.78
-136.16
-143.33
-139.66
-123.43
-95.66
-60.02
-21.74
14.03
43.61
65.49
79.95
88.20
91.51
90.79
86.82
80.54
73.28
66.50
61.34
58.20
56.60
55.52
53.95
51.37
47.92
44.11
40.42
36.75
32.40
26.30
17.64
6.39
-6.53
-19.56
-31.12
-40.31
-47.19
-52.78
-58.71
-66.63
-77.75
-92.23
-108.79
-124.56
-135.52
-137.51
-127.63
-105.47
-73.49
-36.34
0.68
33.31
59.33
78.58
92.11
101.07
106.10
107.29
104.83
99.49
92.79
86.52
82.06
79.76
78.84
77.86
75.50
71.17
65.34
59.13
53.67
49.41
45.81
41.53
35.08
25.56
13.11
-1.01
-15.01
-27.25
-36.88
-44.14
-50.20
-56.70
-65.26
-76.97
-92.02
-109.37
-126.57
-140.01
-145.66
-140.25
-122.55
-94.02
-58.62
-21.53
12.42
40.19
60.87
75.28
84.89
90.91
93.88
93.92
91.19
86.33
80.44
74.81
70.46
67.80
66.60
66.13
65.54
64.14
61.60
58.02
53.70
49.05
44.30
39.38
33.90
27.30
19.14
9.27
-1.93
-13.66
-24.92
-34.87
-43.13
-49.87
-55.72
-61.60
-68.49
-77.29
-88.68
-102.71
-118.30
-132.89
-142.71
-143.63
-132.71
-109.54
-76.66
-38.95
-1.93
29.95
54.49
71.67
82.86
89.59
92.86
93.06
90.38
85.32
79.01
72.87
68.26
65.89
65.62
66.50
67.25
66.68
64.17
59.80
54.19
48.18
42.37
36.88
31.36
25.21
17.84
8.99
-1.13
-11.92
-22.49
-32.03
-40.00
-46.32
-51.44
-56.22
-61.74
-69.14
-79.26
-92.23
-107.07
-121.31
-131.32
-133.08
-123.61
-102.23
-71.18
-35.09
0.53
31.09
54.09
69.36
78.21
82.29
82.74
80.09
74.67
67.24
59.16
52.08
47.40
45.61
46.17
47.74
48.75
48.03
45.21
40.76
35.65
30.83
26.73
23.02
18.76
12.84
4.50
-6.20
-18.36
-30.57
-41.39
-49.90
-55.96
-60.20
-63.79
-68.10
-74.39
-83.56
-95.81
-110.23
-124.58
-135.34
-138.49
-130.76
-110.97
-80.77
-44.37
-7.28
25.47
50.73
67.65
77.24
81.33
81.63
79.29
75.00
69.36
63.14
57.23
52.42
49.10
47.22
46.33
45.92
45.54
44.94
43.97
42.53
40.41
37.35
33.12
27.67
21.19
14.03
6.54
-1.15
-9.09
-17.50
-26.46
-35.77
-44.89
-53.20
-60.24
-65.98
-70.91
-75.98
-82.37
-91.16
-102.85
-116.87
-131.14
-142.15
-145.66
-138.04
-117.68
-85.93
-46.99
-6.59
29.72
58.29
77.95
89.68
95.46
97.19
96.01
92.48
87.01
80.30
73.47
67.67
63.74
61.80
61.33
61.43
61.21
60.14
58.09
55.24
51.84
48.05
43.88
39.16
33.61
26.93
18.89
9.43
-1.22
-12.50
-23.64
-33.85
-42.54
-49.59
-55.34
-60.64
-66.61
-74.40
-84.85
-97.94
-112.39
-125.33
-132.83
-130.83
-116.65
-90.26
-54.60
-14.84
23.23
55.03
78.24
92.84
100.25
102.19
99.93
94.23
85.78
75.64
65.37
56.63
50.56
47.32
45.96
44.93
42.71
38.48
32.46
25.71
19.62
15.27
12.86
11.56
9.81
5.95
-1.15
-11.54
-24.20
-37.38
-49.30
-58.84
-65.88
-71.24
-76.31
-82.56
-91.08
-102.33
-115.81
-129.80
-141.38
-146.82
-142.55
-126.44
-98.90
-63.07
-24.04
12.72
42.96
64.59
77.59
83.18
82.89
78.02
69.67
59.11
47.97
38.02
30.68
26.44
24.69
24.02
22.86
20.30
16.31
11.74
7.67
4.77
2.86
0.86
-2.73
-9.13
-18.59
-30.20
-42.21
-52.71
-60.53
-65.61
-69.02
-72.51
-77.85
-86.30
-98.14
-112.38
-126.57
-137.03
-139.53
-130.57
-108.74
-75.61
-35.56
5.49
41.92
70.05
88.63
98.47
101.37
99.15
93.28
85.07
75.93
67.48
61.13
57.53
56.32
56.27
55.85
54.03
50.74
46.80
43.39
41.33
40.50
39.82
37.63
32.52
23.96
12.60
-0.02
-12.08
-22.26
-30.19
-36.55
-42.79
-50.65
-61.56
-75.99
-92.99
-109.86
-122.51
-126.38
-118.00
-96.29
-63.33
-23.82
16.31
51.69
78.92
96.94
106.50
109.18
106.60
100.10
90.95
80.56
70.46
62.05
56.04
52.29
49.94
47.84
45.20
41.88
38.33
35.18
32.64
30.25
26.90
21.36
12.86
1.57
-11.40
-24.42
-35.96
-45.27
-52.56
-59.02
-66.34
-76.19
-89.47
-105.66
-122.44
-135.92
-141.47
-135.22
-115.59
-84.11
-45.17
-4.72
31.65
60.21
79.74
91.00
95.74
95.67
92.02
85.67
77.56
68.85
60.81
54.35
49.70
46.34
43.36
40.00
36.03
31.81
27.88
24.54
21.47
17.77
12.37
4.61
-5.37
-16.62
-27.76
-37.57
-45.51
-51.98
-58.22
-65.95
-76.77
-91.55
-109.78
-129.18
-145.82
-154.93
-152.27
-135.74
-106.34
-68.19
-27.29
10.31
40.27
60.80
72.36
76.74
75.92
71.57
64.98
57.35
49.91
43.78
39.58
37.25
36.10
35.21
33.89
31.89
29.42
26.78
24.11
21.15
17.30
11.88
4.46
-4.90
-15.62
-26.71
-37.19
-46.53
-54.89
-63.22
-72.95
-85.39
-101.04
-118.87
-136.05
-148.34
-151.14
-141.04
-117.16
-81.80
-39.87
2.49
39.83
68.70
88.12
99.04
103.31
102.78
98.85
92.56
84.92
77.01
69.86
64.22
60.31
57.81
56.13
54.66
52.99
50.90
48.22
44.62
39.64
32.79
23.79
12.91
0.94
-10.92
-21.51
-30.13
-36.90
-42.78
-49.43
-58.61
-71.50
-87.84
-105.49
-120.59
-128.40
-124.87
-108.16
-79.51
-43.04
-4.41
30.99
59.53
79.93
92.83
99.76
102.25
101.44
98.10
93.04
87.22
81.58
76.74
72.81
69.41
65.99
62.21
58.14
54.09
50.36
46.89
43.17
38.36
31.62
22.54
11.33
-1.23
-14.05
-26.23
-37.30
-47.40
-57.23
-67.91
-80.56
-95.75
-112.86
-129.60
-142.19
-146.24
-138.30
-117.34
-85.46
-47.34
-8.62
25.93
53.72
74.41
89.02
98.80
104.46
106.22
104.33
99.60
93.49
87.63
83.20
80.47
78.79
77.07
74.36
70.46
65.90
61.63
58.37
55.98
53.37
48.89
41.13
29.71
15.58
0.67
-12.96
-23.98
-32.25
-38.80
-45.32
-53.60
-65.03
-80.13
-98.14
-116.74
-132.11
-139.76
-135.87
-118.79
-89.92
-53.46
-15.01
20.23
48.98
70.32
85.08
94.74
100.44
102.68
101.60
97.58
91.56
84.95
79.24
75.32
73.26
72.27
71.18
68.96
65.16
60.05
54.43
49.17
44.75
40.90
36.69
30.80
22.14
10.42
-3.59
-18.26
-31.68
-42.42
-50.12
-55.53
-60.20
-65.86
-73.93
-85.19
-99.57
-115.93
-131.90
-143.99
-148.21
-141.28
-121.97
-91.91
-55.32
-17.74
15.84
42.31
60.98
72.90
79.71
82.69
82.44
79.22
73.56
66.58
59.84
54.82
52.33
52.16
53.25
54.17
53.74
51.50
47.79
43.47
39.42
36.07
33.14
29.70
24.60
16.95
6.54
-5.89
-18.94
-30.96
-40.65
-47.54
-52.16
-55.78
-60.05
-66.49
-76.17
-89.33
-105.06
-121.07
-133.78
-139.05
-133.42
-115.49
-86.77
-51.44
-15.02
17.41
42.76
60.28
71.07
76.86
79.11
78.62
75.84
71.24
65.70
60.29
56.04
53.47
52.46
52.31
52.05
50.87
48.42
44.88
40.83
36.88
33.33
29.95
26.05
20.77
13.53
4.20
-6.73
-18.31
-29.46
-39.28
-47.25
-53.42
-58.32
-62.83
-67.96
-74.69
-83.71
-95.18
-108.28
-120.94
-129.97
-131.65
-123.04
-103.14
-73.65
-38.63
-3.21
27.99
52.21
68.86
78.98
84.29
86.19
85.53
82.76
78.29
72.83
67.26
62.41
58.80
56.42
54.88
53.60
52.05
49.89
47.08
43.73
40.02
36.04
31.78
27.07
21.68
15.40
8.08
-0.27
-9.51
-19.31
-29.19
-38.54
-46.78
-53.58
-58.93
-63.32
-67.66
-73.12
-80.86
-91.53
-104.69
-118.46
-129.48
-133.71
-127.66
-109.78
-81.28
-45.94
-9.01
24.53
51.26
69.97
81.25
86.68
87.91
86.32
82.86
78.34
73.44
68.77
64.72
61.42
58.79
56.67
54.94
53.57
52.52
51.66
50.70
49.20
46.70
42.89
37.71
31.35
24.15
16.46
8.44
0.10
-8.67
-17.83
-27.14
-36.16
-44.37
-51.39
-57.20
-62.12
-66.84
-72.33
-79.65
-89.63
-102.32
-116.48
-129.30
-136.83
-135.02
-121.24
-95.53
-60.93
-22.70
13.41
42.93
63.79
76.28
82.15
83.37
81.36
76.80
70.13
62.00
53.57
46.20
41.08
38.65
38.55
39.82
41.32
42.13
41.73
40.04
37.20
33.53
29.23
24.44
19.12
13.05
6.01
-2.16
-11.38
-21.24
-31.08
-40.20
-48.07
-54.53
-59.84
-64.59
-69.62
-75.88
-84.27
-95.31
-108.68
-122.66
-134.12
-139.04
-133.69
-116.20
-87.51
-51.37
-13.20
21.61
49.30
68.46
79.71
84.65
84.93
81.60
75.32
66.80
57.24
48.27
41.58
38.23
38.22
40.46
43.22
44.83
44.36
41.84
38.09
34.13
30.65
27.57
24.16
19.38
12.37
2.90
-8.52
-20.78
-32.53
-42.67
-50.73
-56.92
-62.12
-67.51
-74.34
-83.65
-95.87
-110.41
-125.35
-137.38
-142.46
-137.01
-119.28
-90.31
-53.83
-15.21
20.30
49.02
69.55
82.41
89.11
91.15
89.53
84.90
77.96
69.83
61.97
55.78
52.07
50.75
50.83
50.95
49.97
47.44
43.69
39.60
36.00
33.21
30.81
27.74
22.76
14.98
4.32
-8.39
-21.63
-33.77
-43.68
-51.09
-56.71
-61.81
-67.85
-76.08
-87.21
-101.22
-116.96
-132.00
-142.75
-145.17
-136.06
-114.39
-82.06
-43.56
-4.53
29.96
56.86
75.53
87.08
93.23
95.39
94.33
90.50
84.56
77.65
71.23
66.61
64.34
64.05
64.54
64.47
62.85
59.56
55.24
50.93
47.39
44.68
41.98
37.94
31.26
21.31
8.50
-5.82
-19.84
-31.91
-41.15
-47.71
-52.64
-57.51
-63.97
-73.36
-86.22
-102.02
-118.79
-133.19
-141.12
-138.84
-124.26
-98.00
-63.38
-25.49
10.37
40.33
62.63
77.42
85.88
89.27
88.54
84.44
77.92
70.36
63.33
58.12
55.25
54.23
53.87
52.87
50.41
46.53
41.97
37.78
34.67
32.59
30.54
27.03
20.68
10.89
-1.81
-15.92
-29.56
-41.14
-49.91
-56.10
-60.80
-65.55
-72.02
-81.54
-94.61
-110.38
-126.33
-138.55
-142.67
-135.32
-115.48
-85.09
-48.52
-11.20
22.14
48.63
67.48
79.38
85.51
86.86
84.09
77.97
69.75
61.32
54.64
51.08
50.83
52.77
55.04
55.91
54.46
50.86
46.14
41.41
37.28
33.50
29.10
22.90
14.16
2.98
-9.70
-22.34
-33.51
-42.35
-49.00
-54.46
-60.31
-68.19
-79.24
-93.69
-110.44
-127.00
-139.76
-144.78
-138.98
-121.21
-92.97
-58.04
-21.39
12.38
40.24
61.21
75.81
85.17
90.19
91.36
89.00
83.81
77.16
70.80
66.28
64.31
64.45
65.37
65.46
63.59
59.55
54.04
48.17
42.85
38.25
33.69
27.97
19.98
9.27
-3.68
-17.62
-31.01
-42.60
-51.90
-59.30
-65.88
-73.03
-82.09
-93.97
-108.85
-125.81
-142.59
-155.81
-161.52
-156.45
-139.17
-110.84
-75.05
-36.74
-0.60
30.30
54.98
74.20
89.26
101.13
109.93
115.29
116.95
115.35
111.71
107.59
104.33
102.44
101.59
100.91
99.42
96.50
92.07
86.44
80.17
73.71
67.20
60.41
52.78
43.70
32.85
20.43
7.21
-5.73
-17.39
-27.20
-35.30
-42.39
-49.45
-57.42
-67.03
-78.75
-92.61
-107.94
-122.98
-134.81
-139.83
-134.82
-118.24
-91.09
-56.85
-20.43
13.48
41.75
63.39
79.11
90.27
97.93
102.54
104.09
102.79
99.35
94.98
90.91
87.95
86.12
84.86
83.45
81.45
78.93
76.36
74.18
72.41
70.47
67.29
61.89
53.80
43.45
32.08
21.22
12.04
4.81
-1.16
-7.20
-14.52
-23.71
-34.34
-45.25
-55.05
-62.80
-68.36
-72.52
-76.74
-82.74
-91.96
-105.04
-121.23
-138.09
-151.72
-157.55
-151.82
-132.98
-102.52
-64.70
-25.22
10.53
39.03
59.18
71.86
78.90
81.99
82.21
80.14
76.33
71.63
67.15
63.92
62.40
62.26
62.66
62.67
61.73
59.82
57.32
54.54
51.53
47.99
43.48
37.74
30.86
23.20
15.22
7.20
-0.84
-9.06
-17.60
-26.46
-35.35
-43.76
-51.13
-57.10
-61.78
-65.78
-70.25
-76.57
-85.89
-98.51
-113.34
-127.72
-137.81
-139.59
-130.22
-109.15
-78.60
-42.93
-7.35
23.65
47.44
63.47
72.74
76.89
77.42
75.48
71.90
67.47
63.04
59.38
56.99
55.90
55.74
55.94
55.99
55.58
54.56
52.92
50.59
47.44
43.32
38.16
32.06
25.23
17.91
10.25
2.20
-6.36
-15.49
-24.96
-34.28
-42.84
-50.18
-56.19
-61.26
-66.13
-71.73
-79.01
-88.71
-100.97
-114.94
-128.36
-137.80
-139.43
-130.31
-109.72
-79.67
-44.50
-9.43
21.10
44.62
60.84
71.03
76.96
80.05
81.01
80.09
77.48
73.63
69.28
65.23
62.02
59.77
58.19
56.81
55.31
53.54
51.54
49.32
46.72
43.40
39.02
33.40
26.72
19.37
11.75
4.06
-3.79
-11.98
-20.63
-29.55
-38.25
-46.17
-52.95
-58.66
-63.83
-69.42
-76.60
-86.29
-98.68
-112.70
-125.89
-134.66
-135.29
-125.19
-103.93
-73.71
-38.73
-3.90
26.59
50.32
66.83
77.06
82.49
84.45
83.84
81.25
77.27
72.69
68.34
64.91
62.63
61.22
60.18
59.09
57.81
56.52
55.42
54.45
53.10
50.58
46.17
39.63
31.40
22.47
13.97
6.61
0.40
-5.33
-11.61
-19.21
-28.26
-38.13
-47.73
-56.00
-62.45
-67.33
-71.56
-76.51
-83.55
-93.65
-106.80
-121.56
-134.90
-142.70
-140.91
-127.01
-101.19
-66.57
-28.26
8.22
38.60
60.78
74.69
81.58
83.11
80.75
75.74
69.21
62.33
56.23
51.76
49.29
48.63
49.11
49.98
50.59
50.63
50.04
48.84
46.95
44.15
40.13
34.83
28.47
21.55
14.59
7.82
1.07
-6.15
-14.23
-23.23
-32.74
-42.01
-50.28
-57.14
-62.62
-67.29
-72.16
-78.42
-87.22
-99.12
-113.49
-128.13
-139.42
-143.14
-135.90
-116.40
-86.21
-49.42
-11.43
22.73
49.66
68.14
78.78
83.19
83.09
79.92
74.77
68.60
62.44
57.26
53.78
52.31
52.51
53.66
54.89
55.52
55.17
53.79
51.48
48.43
44.68
40.21
34.93
28.80
21.81
14.07
5.70
-3.15
-12.40
-21.95
-31.67
-41.25
-50.24
-58.20
-64.87
-70.40
-75.55
-81.52
-89.71
-101.07
-115.42
-130.94
-144.15
-150.66
-146.46
-129.46
-100.45
-63.11
-22.93
14.55
45.26
67.53
81.75
89.55
92.76
92.79
90.53
86.63
81.79
76.85
72.59
69.59
68.01
67.56
67.71
67.81
67.29
65.83
63.36
59.99
55.92
51.29
46.11
40.22
33.41
25.51
16.47
6.43
-4.32
-15.28
-25.86
-35.52
-43.88
-50.93
-57.04
-62.93
-69.56
-77.94
-88.89
-102.60
-118.16
-133.15
-143.88
-146.23
-137.02
-115.32
-83.19
-45.11
-6.68
27.22
53.62
71.88
83.02
88.79
90.77
89.99
87.06
82.56
77.23
72.00
67.73
64.91
63.50
62.95
62.52
61.54
59.70
56.99
53.68
50.02
46.09
41.74
36.58
30.20
22.27
12.73
1.89
-9.60
-20.88
-31.13
-39.81
-46.89
-52.74
-58.08
-63.78
-70.70
-79.68
-91.28
-105.37
-120.63
-134.24
-142.33
-141.01
-127.82
-102.92
-69.35
-32.12
3.39
33.07
55.03
69.41
77.58
81.05
80.90
77.72
72.13
65.15
58.28
53.09
50.68
51.17
53.67
56.63
58.54
58.55
56.66
53.62
50.45
47.82
45.74
43.52
40.05
34.38
26.14
15.78
4.47
-6.33
-15.49
-22.58
-28.02
-32.86
-38.39
-45.78
-55.79
-68.51
-83.06
-97.50
-108.80
-113.45
-108.48
-92.54
-66.75
-34.58
-0.83
29.79
54.10
70.93
80.88
85.40
85.89
83.26
78.05
70.81
62.52
54.52
48.18
44.31
42.82
42.75
42.70
41.50
38.70
34.70
30.44
26.85
24.29
22.30
19.77
15.41
8.29
-1.68
-13.68
-26.33
-38.13
-48.03
-55.79
-61.96
-67.65
-74.12
-82.44
-93.25
-106.54
-121.34
-135.51
-145.77
-148.25
-139.65
-118.55
-86.36
-47.28
-7.05
28.81
56.77
75.94
87.65
94.16
97.33
97.95
95.98
91.28
84.34
76.41
69.14
63.87
61.07
60.25
60.34
60.30
59.51
57.92
55.76
53.21
50.14
46.12
40.70
33.67
25.21
15.76
5.81
-4.33
-14.54
-24.80
-35.02
-44.96
-54.29
-62.82
-70.67
-78.37
-86.82
-97.10
-110.09
-125.89
-143.24
-159.21
-169.63
-170.24
-158.23
-133.53
-99.13
-60.22
-22.51
9.55
33.76
50.09
59.83
64.57
65.48
63.33
58.80
52.82
46.70
41.76
38.94
38.44
39.69
41.55
42.82
42.61
40.64
37.21
32.95
28.51
24.22
20.00
15.40
9.82
2.86
-5.57
-15.11
-25.06
-34.64
-43.15
-50.24
-55.92
-60.56
-64.78
-69.45
-75.51
-83.79
-94.59
-107.20
-119.52
-128.20
-129.44
-120.20
-99.49
-68.97
-32.60
4.57
38.01
64.85
84.25
96.88
104.02
106.81
106.05
102.41
96.82
90.57
85.06
81.34
79.59
79.01
78.22
75.87
71.30
64.89
57.77
51.22
45.93
41.61
37.09
30.87
21.95
10.31
-3.01
-16.33
-28.03
-37.13
-43.70
-48.69
-53.63
-60.18
-69.67
-82.66
-98.53
-115.22
-129.33
-136.73
-133.66
-118.16
-90.97
-55.59
-17.37
18.24
47.26
68.04
81.08
88.06
90.67
90.04
86.78
81.40
74.84
68.39
63.26
60.07
58.49
57.42
55.59
52.20
47.33
41.88
37.13
34.00
32.51
31.60
29.50
24.49
15.72
3.65
-10.10
-23.49
-34.88
-43.68
-50.39
-56.31
-63.00
-71.86
-83.78
-98.75
-115.52
-131.27
-141.97
-143.30
-132.23
-108.36
-74.32
-35.15
3.44
36.85
62.77
81.12
93.30
100.93
105.11
106.30
104.68
100.75
95.51
90.32
86.30
83.91
82.73
81.74
79.82
76.35
71.50
66.05
61.02
57.05
54.09
51.39
47.76
42.08
33.66
22.57
9.61
-3.94
-16.70
-27.61
-36.27
-43.11
-49.10
-55.61
-64.02
-75.34
-89.79
-106.40
-122.71
-135.01
-139.17
-131.86
-111.92
-80.98
-43.20
-3.93
31.85
60.86
81.99
95.79
103.60
106.72
106.06
102.29
96.23
89.01
81.96
76.24
72.38
70.13
68.54
66.43
62.95
57.92
51.84
45.67
40.28
36.10
32.82
29.55
25.04
18.24
8.67
-3.31
-16.61
-29.72
-41.34
-50.77
-58.21
-64.59
-71.23
-79.46
-90.23
-103.75
-119.05
-133.85
-144.63
-147.41
-139.03
-118.42
-87.34
-50.01
-11.83
22.31
49.36
68.40
80.15
85.93
86.94
84.07
78.08
70.12
61.66
54.32
49.23
46.68
45.94
45.70
44.63
42.00
37.92
33.23
29.00
25.93
23.95
22.08
18.89
13.08
4.06
-7.66
-20.64
-33.08
-43.53
-51.45
-57.33
-62.47
-68.46
-76.73
-88.10
-102.48
-118.58
-133.82
-144.52
-146.78
-137.63
-116.29
-84.76
-47.41
-9.67
23.60
49.41
66.98
77.13
81.36
81.00
76.98
70.12
61.49
52.62
45.16
40.41
38.72
39.41
41.01
41.92
41.12
38.50
34.81
31.15
28.26
26.07
23.67
19.68
12.94
3.12
-9.09
-22.20
-34.51
-44.77
-52.64
-58.74
-64.33
-70.92
-79.78
-91.59
-106.02
-121.48
-135.04
-142.88
-141.38
-128.26
-103.74
-70.64
-33.66
2.09
32.67
56.08
72.30
82.40
87.60
88.73
86.28
80.83
73.46
65.75
59.31
55.19
53.43
53.10
52.72
51.08
47.72
43.07
38.15
33.97
30.91
28.52
25.63
20.85
13.19
2.54
-10.20
-23.43
-35.40
-44.91
-51.77
-56.82
-61.68
-68.16
-77.69
-90.77
-106.61
-122.97
-136.35
-142.71
-138.59
-122.32
-94.82
-59.55
-21.50
14.28
44.16
66.53
81.65
90.76
95.18
95.82
93.30
88.28
81.80
75.23
69.91
66.59
65.13
64.63
63.87
61.90
58.48
54.07
49.51
45.43
41.91
38.29
33.54
26.64
17.12
5.34
-7.58
-20.15
-31.05
-39.65
-46.23
-51.85
-57.99
-66.09
-77.10
-91.20
-107.48
-123.80
-136.88
-142.96
-138.77
-122.83
-96.15
-62.22
-25.91
8.02
36.30
57.61
72.27
81.37
85.92
86.58
83.89
78.62
72.07
65.77
61.02
58.39
57.51
57.27
56.41
54.11
50.35
45.84
41.54
38.06
35.16
31.83
26.70
18.74
7.81
-5.20
-18.68
-30.96
-40.96
-48.59
-54.70
-60.79
-68.52
-79.18
-93.17
-109.62
-126.16
-139.18
-144.58
-139.04
-121.22
-92.51
-56.76
-19.25
15.05
42.83
62.97
76.16
83.91
87.52
87.72
84.85
79.46
72.68
66.14
61.39
59.27
59.49
60.84
61.70
60.85
57.87
53.20
47.82
42.62
38.01
33.64
28.57
21.68
12.26
0.43
-12.79
-25.77
-36.96
-45.49
-51.56
-56.35
-61.53
-68.69
-78.92
-92.50
-108.58
-125.12
-138.89
-146.06
-143.16
-128.33
-102.20
-67.93
-30.33
5.65
36.31
60.01
76.91
88.21
95.23
98.88
99.61
97.84
94.29
90.02
86.21
83.76
82.89
83.11
83.46
83.06
81.44
78.82
75.85
73.20
71.08
68.99
65.94
60.84
53.13
43.08
31.81
20.88
11.58
4.47
-0.91
-5.82
-11.70
-19.52
-29.42
-40.57
-51.68
-61.50
-69.35
-75.37
-80.42
-85.79
-92.88
-102.84
-116.09
-131.96
-148.34
-161.72
-167.87
-163.06
-145.43
-115.92
-78.15
-37.40
1.11
33.59
58.53
76.32
88.36
96.16
100.67
102.36
101.63
99.15
95.90
92.96
91.09
90.42
90.55
90.76
90.46
89.41
87.69
85.49
82.88
79.76
75.88
71.03
65.27
58.81
52.03
45.20
38.43
31.62
24.58
17.23
9.69
2.27
-4.65
-10.78
-16.17
-21.22
-26.49
-32.52
-39.49
-47.17
-55.03
-62.47
-69.10
-74.94
-80.48
-86.62
-94.49
-105.00
-118.31
-133.24
-147.05
-155.79
-155.45
-143.35
-119.31
-85.94
-47.97
-10.60
21.94
47.47
65.78
77.95
85.40
89.21
89.97
88.10
84.25
79.45
74.94
71.74
70.33
70.48
71.45
72.37
72.62
72.01
70.65
68.76
66.48
63.74
60.36
56.15
51.02
45.00
38.25
31.08
23.82
16.84
10.38
4.47
-1.01
-6.33
-11.78
-17.52
-23.64
-30.06
-36.63
-43.13
-49.33
-55.06
-60.34
-65.40
-70.65
-76.70
-84.21
-93.75
-105.42
-118.47
-130.91
-139.64
-141.07
-132.35
-112.62
-83.67
-49.51
-15.16
15.03
38.53
54.87
65.02
70.39
72.11
70.88
67.27
62.09
56.53
51.85
49.01
48.30
49.27
51.03
52.59
53.39
53.34
52.80
52.13
51.39
50.12
47.52
42.88
36.01
27.54
18.64
10.63
4.31
-0.33
-4.09
-8.15
-13.57
-20.83
-29.57
-38.85
-47.42
-54.27
-58.98
-61.97
-64.42
-67.91
-73.91
-83.25
-95.60
-109.20
-120.97
-127.16
-124.40
-110.84
-87.02
-55.92
-22.12
9.57
35.50
54.02
65.33
70.78
71.97
70.18
66.30
61.09
55.46
50.42
46.84
45.07
44.82
45.30
45.59
45.07
43.71
41.95
40.37
39.31
38.56
37.39
34.88
30.37
23.84
15.99
7.89
0.47
-5.85
-11.37
-16.83
-22.98
-30.14
-38.02
-45.87
-52.86
-58.41
-62.54
-65.93
-69.69
-75.15
-83.33
-94.54
-107.97
-121.53
-132.07
-136.05
-130.58
-114.43
-88.65
-56.44
-22.27
9.42
35.45
54.39
66.48
72.95
75.27
74.67
72.11
68.32
64.10
60.09
56.78
54.36
52.66
51.38
50.30
49.36
48.66
48.30
48.23
48.08
47.28
45.13
41.10
35.05
27.40
18.94
10.59
2.99
-3.76
-10.10
-16.68
-23.99
-32.04
-40.41
-48.42
-55.51
-61.57
-66.94
-72.42
-79.06
-87.82
-99.14
-112.37
-125.51
-135.23
-137.81
-130.25
-111.57
-83.40
-49.60
-15.06
15.82
40.24
57.39
68.02
73.54
75.32
74.26
70.97
66.06
60.40
55.05
51.08
49.07
49.00
50.25
51.86
52.94
52.98
51.82
49.59
46.50
42.68
38.23
33.18
27.57
21.45
14.78
7.48
-0.56
-9.29
-18.52
-27.80
-36.63
-44.55
-51.35
-57.16
-62.47
-68.10
-75.10
-84.35
-96.04
-109.15
-121.22
-128.64
-127.81
-116.28
-94.00
-63.44
-29.00
4.47
33.11
54.90
69.69
78.48
82.55
82.88
80.11
74.84
68.04
61.12
55.62
52.69
52.59
54.58
57.21
58.96
58.79
56.50
52.61
48.00
43.38
39.03
34.70
29.76
23.55
15.68
6.15
-4.50
-15.49
-25.95
-35.24
-43.11
-49.77
-55.81
-62.09
-69.55
-78.99
-90.77
-104.38
-118.14
-129.27
-134.34
-130.30
-115.61
-90.99
-59.45
-25.38
6.71
33.52
53.59
67.21
75.61
80.16
81.79
80.94
77.94
73.37
68.22
63.68
60.68
59.59
60.04
61.20
62.04
61.75
59.92
56.55
52.00
46.72
41.12
35.34
29.25
22.46
14.54
5.24
-5.27
-16.46
-27.58
-37.87
-46.88
-54.57
-61.27
-67.62
-74.47
-82.76
-93.29
-106.29
-120.98
-135.23
-145.74
-148.80
-141.46
-122.74
-94.20
-59.59
-23.76
8.94
35.73
55.82
69.91
79.34
85.30
88.53
89.44
88.46
86.30
83.82
81.80
80.64
80.24
80.20
80.02
79.36
78.12
76.28
73.84
70.65
66.48
61.14
54.60
47.02
38.76
30.15
21.44
12.60
3.49
-6.07
-16.07
-26.20
-35.90
-44.54
-51.82
-57.94
-63.69
-70.32
-79.16
-91.11
-106.03
-122.33
-136.94
-145.91
-145.44
-133.30
-109.71
-77.50
-41.26
-5.88
24.93
49.39
67.54
80.50
89.56
95.60
99.06
100.25
99.68
98.08
96.24
94.70
93.50
92.30
90.60
88.14
85.09
81.91
79.16
76.99
75.01
72.35
68.00
61.33
52.44
42.18
31.76
22.29
14.25
7.34
0.72
-6.55
-15.03
-24.58
-34.50
-43.79
-51.72
-58.11
-63.44
-68.74
-75.30
-84.27
-96.27
-110.94
-126.60
-140.25
-148.11
-146.64
-133.82
-110.05
-78.23
-42.94
-8.96
20.15
42.73
58.93
69.89
76.84
80.63
81.76
80.74
78.33
75.59
73.51
72.65
72.91
73.62
73.98
73.46
72.02
70.09
68.22
66.65
65.11
62.79
58.79
52.51
44.08
34.43
24.88
16.61
10.12
4.98
0.13
-5.64
-13.06
-22.00
-31.64
-40.79
-48.49
-54.38
-58.84
-62.82
-67.53
-74.20
-83.70
-96.13
-110.40
-124.06
-133.55
-135.12
-126.16
-106.25
-77.62
-44.51
-11.77
16.66
38.78
54.50
64.97
71.55
75.20
76.36
75.32
72.69
69.44
66.65
65.10
64.92
65.55
66.10
65.80
64.30
61.86
59.04
56.46
54.38
52.60
50.50
47.30
42.38
35.58
27.31
18.41
9.90
2.57
-3.26
-7.90
-12.11
-16.80
-22.67
-29.86
-37.93
-46.03
-53.29
-59.22
-63.86
-67.78
-71.93
-77.34
-84.87
-94.98
-107.33
-120.52
-132.02
-138.54
-136.90
-125.20
-103.66
-74.74
-42.51
-11.29
15.59
36.49
51.42
61.39
67.61
71.04
72.21
71.50
69.42
66.73
64.32
62.82
62.48
62.98
63.64
63.78
63.05
61.55
59.74
58.12
56.88
55.75
54.10
51.17
46.46
39.88
31.87
23.28
15.05
8.00
2.47
-1.80
-5.56
-9.78
-15.27
-22.26
-30.34
-38.64
-46.21
-52.39
-57.16
-61.02
-64.90
-69.85
-76.78
-86.25
-98.08
-111.10
-122.99
-130.54
-130.54
-120.80
-101.13
-73.65
-42.24
-11.37
15.29
35.72
49.75
58.46
63.34
65.61
65.96
64.79
62.52
59.77
57.31
55.73
55.18
55.24
55.21
54.45
52.79
50.56
48.44
46.97
46.23
45.68
44.36
41.36
36.17
29.01
20.71
12.47
5.34
-0.14
-4.16
-7.57
-11.45
-16.67
-23.52
-31.57
-39.82
-47.21
-53.01
-57.12
-60.16
-63.20
-67.54
-74.31
-84.03
-96.29
-109.37
-120.43
-126.01
-123.02
-109.90
-87.25
-57.90
-26.06
3.95
28.80
46.88
58.17
63.71
64.91
63.07
59.30
54.56
49.74
45.69
43.05
42.07
42.57
44.02
45.71
47.08
47.76
47.61
46.64
44.87
42.23
38.66
34.12
28.73
22.77
16.51
10.13
3.57
-3.38
-10.95
-19.13
-27.60
-35.79
-43.12
-49.29
-54.41
-59.03
-64.02
-70.29
-78.61
-89.24
-101.56
-113.83
-123.26
-126.56
-120.96
-105.30
-80.71
-50.44
-18.92
9.68
32.55
48.78
58.94
64.35
66.24
65.42
62.42
57.83
52.53
47.67
44.31
43.01
43.61
45.31
47.03
47.83
47.20
45.15
42.02
38.31
34.36
30.30
26.01
21.22
15.61
8.90
1.02
-7.92
-17.55
-27.29
-36.50
-44.64
-51.44
-57.04
-62.03
-67.35
-74.18
-83.50
-95.61
-109.66
-123.33
-133.19
-135.53
-127.60
-108.77
-80.93
-48.00
-14.72
14.85
38.35
55.30
66.61
73.61
77.36
78.49
77.34
74.43
70.62
67.01
64.54
63.62
63.95
64.67
64.77
63.58
60.97
57.37
53.49
49.88
46.66
43.41
39.34
33.66
25.85
15.97
4.57
-7.37
-18.83
-28.97
-37.36
-44.07
-49.69
-55.18
-61.73
-70.48
-82.07
-96.11
-110.86
-123.24
-129.55
-126.55
-112.66
-88.72
-57.85
-24.52
6.89
33.33
53.55
67.86
77.33
83.03
85.58
85.34
82.71
78.43
73.63
69.49
66.77
65.53
65.11
64.51
62.85
59.78
55.61
51.11
47.07
43.82
41.06
37.82
32.96
25.57
15.47
3.31
-9.64
-21.91
-32.40
-40.69
-47.20
-52.96
-59.27
-67.31
-77.89
-91.07
-105.87
-120.13
-130.68
-134.02
-127.39
-109.80
-82.72
-49.80
-15.82
14.81
39.22
56.54
67.51
73.48
75.71
74.96
71.75
66.78
61.21
56.51
53.88
53.77
55.50
57.66
58.66
57.52
54.25
49.72
45.14
41.40
38.51
35.61
31.33
24.50
14.70
2.59
-10.39
-22.57
-32.72
-40.49
-46.45
-51.83
-58.07
-66.44
-77.64
-91.51
-106.69
-120.61
-129.79
-130.76
-121.24
-101.06
-72.54
-39.75
-7.25
21.32
43.96
60.43
71.46
78.05
80.93
80.58
77.57
72.84
67.67
63.43
61.01
60.53
61.22
61.85
61.21
58.69
54.50
49.49
44.62
40.49
36.89
32.96
27.53
19.74
9.46
-2.60
-15.09
-26.63
-36.29
-43.93
-50.22
-56.43
-63.98
-74.03
-86.99
-102.12
-117.37
-129.60
-135.20
-131.26
-116.55
-92.17
-61.33
-28.35
2.64
28.88
49.41
64.72
75.89
83.89
89.11
91.58
91.37
88.92
85.15
81.23
78.13
76.27
75.41
74.85
73.79
71.70
68.47
64.35
59.75
54.94
49.91
44.37
37.86
30.00
20.62
9.85
-1.78
-13.55
-24.64
-34.44
-42.71
-49.66
-55.95
-62.49
-70.22
-79.90
-91.90
-105.85
-120.36
-132.91
-140.23
-139.10
-127.48
-105.46
-75.43
-41.48
-8.07
21.26
44.77
62.43
75.29
84.58
91.09
95.05
96.47
95.46
92.53
88.52
84.39
80.89
78.40
76.85
75.87
74.99
73.72
71.75
68.87
64.95
59.92
53.81
46.69
38.79
30.33
21.46
12.22
2.57
-7.48
-17.76
-27.91
-37.47
-46.13
-53.83
-60.89
-67.92
-75.73
-85.18
-96.87
-110.74
-125.61
-138.94
-147.17
-146.70
-135.21
-112.70
-81.85
-47.17
-13.55
15.20
37.21
52.50
62.18
67.65
69.96
69.84
67.91
64.92
61.85
59.62
58.85
59.60
61.37
63.34
64.67
64.84
63.70
61.45
58.38
54.69
50.35
45.21
39.20
32.43
25.19
17.80
10.37
2.79
-5.16
-13.60
-22.27
-30.67
-38.17
-44.40
-49.50
-54.18
-59.60
-67.00
-77.31
-90.52
-105.27
-118.79
-127.29
-127.06
-115.79
-93.59
-63.18
-29.13
3.60
31.24
52.03
66.14
74.91
79.81
81.82
81.33
78.57
74.04
68.69
63.72
60.12
58.34
58.07
58.48
58.61
57.70
55.45
52.02
47.79
43.18
38.38
33.34
27.77
21.25
13.47
4.34
-5.87
-16.54
-26.90
-36.26
-44.22
-50.81
-56.41
-61.68
-67.38
-74.37
-83.40
-94.90
-108.46
-122.45
-133.92
-139.20
-135.01
-119.79
-94.48
-62.45
-28.44
2.95
28.62
47.43
59.97
67.60
71.71
73.18
72.48
70.00
66.36
62.39
58.96
56.69
55.65
55.42
55.29
54.55
52.77
49.90
46.24
42.27
38.40
34.75
31.07
26.79
21.19
13.75
4.39
-6.37
-17.60
-28.23
-37.42
-44.90
-51.01
-56.54
-62.51
-69.95
-79.63
-91.82
-105.96
-120.39
-132.32
-138.31
-135.18
-121.17
-96.80
-64.96
-30.12
2.99
30.86
51.85
66.21
75.26
80.43
82.71
82.51
80.10
76.00
71.14
66.66
63.52
62.00
61.64
61.48
60.52
58.16
54.45
49.97
45.45
41.37
37.70
33.86
29.00
22.39
13.71
3.24
-8.22
-19.61
-29.98
-38.77
-45.94
-51.97
-57.71
-64.18
-72.38
-83.01
-96.12
-110.65
-124.25
-133.52
-134.86
-125.68
-105.49
-76.42
-42.60
-8.90
20.56
43.48
59.43
69.28
74.30
75.48
73.48
68.92
62.78
56.39
51.21
48.22
47.58
48.51
49.68
49.79
48.11
44.73
40.45
36.34
33.06
30.55
27.88
23.71
16.93
7.21
-4.71
-17.32
-28.94
-38.41
-45.49
-50.82
-55.58
-61.12
-68.59
-78.73
-91.57
-106.09
-119.95
-129.70
-131.59
-122.83
-102.79
-73.50
-39.10
-4.55
25.93
49.83
66.53
76.69
81.43
81.79
78.64
72.90
65.79
58.76
53.19
49.93
48.94
49.36
49.86
49.24
46.95
43.22
38.88
34.85
31.56
28.65
25.09
19.65
11.47
0.58
-12.05
-24.88
-36.34
-45.46
-52.25
-57.64
-63.16
-70.42
-80.60
-93.94
-109.43
-124.72
-136.44
-140.94
-135.37
-118.64
-92.07
-59.05
-24.09
8.45
35.59
56.14
70.39
79.38
84.13
85.35
83.50
79.24
73.62
68.01
63.66
61.23
60.48
60.39
59.72
57.58
53.83
49.16
44.58
40.92
38.25
35.76
32.11
25.99
16.78
4.90
-8.34
-21.22
-32.29
-40.93
-47.55
-53.35
-59.91
-68.68
-80.53
-95.37
-111.84
-127.24
-137.85
-139.79
-130.30
-108.85
-77.67
-41.22
-4.79
27.17
52.25
70.25
82.44
90.39
95.11
96.89
95.73
91.97
86.59
81.06
76.74
74.32
73.53
73.39
72.72
70.66
67.05
62.31
57.19
52.30
47.77
43.22
37.86
30.83
21.63
10.37
-2.12
-14.64
-25.97
-35.41
-43.01
-49.50
-55.98
-63.58
-73.18
-85.29
-99.84
-115.88
-131.27
-142.69
-146.32
-139.02
-119.61
-89.71
-53.38
-15.94
17.73
44.59
63.80
76.17
83.18
86.09
85.63
82.28
76.71
70.05
63.76
59.18
57.00
56.95
57.95
58.59
57.76
55.10
51.07
46.61
42.55
39.08
35.61
31.01
24.16
14.56
2.65
-10.33
-22.80
-33.46
-41.78
-48.13
-53.58
-59.50
-67.23
-77.67
-91.06
-106.62
-122.32
-134.97
-140.74
-136.34
-120.17
-93.20
-58.90
-22.30
11.64
39.42
59.62
72.72
80.13
83.25
83.02
80.00
74.76
68.24
61.72
56.50
53.45
52.66
53.47
54.84
55.66
55.19
53.16
49.78
45.48
40.74
35.89
30.96
25.70
19.64
12.30
3.40
-6.91
-18.01
-29.04
-39.13
-47.79
-55.02
-61.38
-67.71
-75.01
-84.17
-95.82
-109.93
-125.35
-139.62
-149.10
-149.89
-139.15
-116.35
-83.77
-45.89
-8.00
25.46
51.93
70.89
83.18
90.15
92.95
92.44
89.39
84.75
79.69
75.29
72.24
70.64
70.01
69.65
69.02
67.87
66.29
64.40
62.17
59.33
55.42
50.11
43.39
35.60
27.28
18.90
10.62
2.31
-6.33
-15.47
-25.02
-34.59
-43.68
-51.87
-59.10
-65.61
-72.04
-79.27
-88.31
-99.92
-114.04
-129.27
-142.64
-150.14
-147.80
-133.27
-106.84
-71.66
-32.73
4.69
36.66
61.31
78.72
90.00
96.41
98.87
98.03
94.64
89.77
84.72
80.63
78.05
76.79
76.15
75.37
74.08
72.41
70.79
69.52
68.49
67.04
64.26
59.36
52.07
42.81
32.53
22.43
13.45
5.92
-0.55
-6.85
-14.01
-22.56
-32.34
-42.46
-51.74
-59.29
-65.03
-69.71
-74.80
-81.91
-92.25
-106.05
-122.13
-137.83
-149.38
-152.72
-144.73
-124.39
-93.48
-56.15
-17.78
16.69
44.06
63.40
75.50
81.95
84.21
83.28
79.84
74.60
68.61
63.02
58.85
56.51
55.79
56.00
56.36
56.32
55.65
54.33
52.36
49.65
46.00
41.18
35.12
28.04
20.35
12.45
4.60
-3.26
-11.34
-19.88
-28.76
-37.58
-45.66
-52.48
-57.94
-62.51
-67.13
-73.03
-81.29
-92.49
-106.26
-120.90
-133.39
-139.90
-136.92
-122.52
-97.27
-64.30
-28.32
5.82
34.54
56.18
70.81
79.46
83.30
83.21
79.83
73.85
66.28
58.49
51.88
47.51
45.80
46.32
48.06
49.81
50.52
49.68
47.32
43.77
39.45
34.61
29.26
23.25
16.38
8.50
-0.36
-10.00
-20.04
-29.97
-39.21
-47.38
-54.37
-60.42
-66.14
-72.41
-80.21
-90.31
-102.88
-116.99
-130.32
-139.42
-140.55
-130.96
-110.02
-79.75
-44.29
-8.62
22.99
47.98
65.78
77.15
83.37
85.56
84.47
80.76
75.25
69.09
63.47
59.36
57.15
56.60
56.99
57.40
57.08
55.54
52.73
48.88
44.41
39.67
34.81
29.70
23.94
17.09
8.80
-0.90
-11.60
-22.58
-33.10
-42.59
-50.89
-58.21
-65.05
-72.05
-79.93
-89.41
-100.97
-114.50
-128.69
-140.90
-147.46
-144.75
-130.57
-105.19
-71.59
-34.55
0.92
31.05
54.12
70.23
80.52
86.26
88.36
87.40
83.97
78.94
73.50
68.86
65.88
64.79
65.10
65.89
66.12
65.03
62.36
58.40
53.74
48.99
44.45
39.94
34.86
28.43
20.13
9.94
-1.55
-13.34
-24.42
-34.11
-42.35
-49.59
-56.61
-64.27
-73.32
-84.34
-97.58
-112.51
-127.49
-139.64
-145.29
-141.11
-125.38
-98.95
-65.17
-28.87
5.15
33.63
55.30
70.58
80.62
86.42
88.47
87.00
82.53
76.15
69.52
64.28
61.47
61.10
62.26
63.52
63.63
61.98
58.76
54.62
50.29
46.14
41.99
37.17
30.91
22.67
12.45
0.86
-11.02
-22.05
-31.41
-38.92
-45.04
-50.75
-57.21
-65.42
-76.05
-89.13
-103.80
-118.02
-128.77
-132.53
-126.35
-109.07
-81.96
-48.61
-13.81
17.95
43.83
62.97
76.12
84.59
89.40
90.97
89.44
85.19
79.21
72.99
68.06
65.36
64.94
65.91
66.97
66.85
64.87
61.06
56.06
50.72
45.65
40.94
36.08
30.16
22.36
12.34
0.53
-11.92
-23.61
-33.44
-41.03
-46.91
-52.25
-58.41
-66.57
-77.42
-90.91
-106.19
-121.40
-133.70
-139.74
-136.49
-122.37
-98.02
-66.39
-31.89
0.98
28.94
50.61
66.26
77.06
84.17
88.30
89.77
88.89
86.28
82.91
79.79
77.59
76.36
75.63
74.73
73.23
71.15
68.93
67.06
65.68
64.31
61.95
57.52
50.43
40.93
30.13
19.60
10.60
3.66
-1.72
-6.73
-12.73
-20.64
-30.48
-41.47
-52.26
-61.61
-68.82
-74.08
-78.42
-83.43
-90.79
-101.61
-115.85
-131.89
-146.57
-155.76
-155.53
-143.51
-119.83
-87.26
-50.40
-14.18
17.60
43.04
62.09
75.67
84.86
90.39
92.73
92.39
90.30
87.64
85.52
84.50
84.35
84.35
83.63
81.74
78.82
75.54
72.67
70.65
69.28
67.72
64.89
59.96
52.71
43.69
34.03
24.89
16.98
10.27
4.06
-2.69
-10.70
-20.05
-30.11
-39.77
-48.02
-54.41
-59.33
-63.89
-69.55
-77.65
-88.92
-103.08
-118.60
-132.76
-142.06
-143.03
-133.42
-112.99
-83.93
-50.30
-16.78
12.75
36.12
53.11
64.73
72.32
76.83
78.69
78.15
75.71
72.32
69.11
66.88
65.78
65.28
64.59
63.22
61.22
59.15
57.61
56.76
56.09
54.61
51.27
45.56
37.70
28.66
19.64
11.65
5.07
-0.44
-5.71
-11.64
-18.74
-26.89
-35.42
-43.43
-50.15
-55.40
-59.61
-63.66
-68.75
-76.01
-86.10
-98.80
-112.68
-125.00
-132.22
-130.96
-119.19
-97.14
-67.52
-34.64
-3.13
23.49
43.54
57.11
65.32
69.46
70.48
68.92
65.30
60.45
55.46
51.49
49.27
48.88
49.77
51.04
51.92
51.96
51.02
49.15
46.38
42.60
37.69
31.71
24.97
17.98
11.30
5.24
-0.27
-5.66
-11.56
-18.46
-26.45
-35.13
-43.73
-51.36
-57.45
-61.97
-65.56
-69.37
-74.81
-82.99
-94.26
-107.67
-120.86
-130.36
-132.47
-124.47
-105.73
-78.08
-45.39
-12.34
16.99
40.16
56.59
67.10
73.09
75.83
76.18
74.75
72.10
68.91
65.90
63.55
61.99
60.99
60.13
59.13
57.89
56.50
55.05
53.46
51.41
48.50
44.37
38.91
32.34
25.05
17.47
9.88
2.26
-5.56
-13.76
-22.32
-30.91
-39.00
-46.08
-51.95
-56.89
-61.61
-67.11
-74.38
-84.10
-96.20
-109.52
-121.63
-129.20
-128.83
-118.28
-97.42
-68.56
-35.82
-3.79
23.84
45.15
60.05
69.59
75.11
77.70
78.00
76.49
73.72
70.42
67.30
64.87
63.22
62.12
61.20
60.24
59.23
58.33
57.62
56.87
55.57
53.03
48.76
42.73
35.39
27.43
19.51
11.88
4.40
-3.30
-11.51
-20.23
-29.08
-37.50
-45.00
-51.44
-57.08
-62.57
-68.78
-76.59
-86.57
-98.58
-111.42
-122.67
-129.04
-127.28
-115.31
-93.27
-63.67
-30.84
0.51
26.65
45.76
57.95
64.56
67.14
66.90
64.47
60.28
54.92
49.30
44.49
41.31
40.06
40.35
41.35
42.07
41.81
40.30
37.78
34.72
31.61
28.65
25.64
22.03
17.16
10.59
2.30
-7.22
-17.19
-26.71
-35.18
-42.36
-48.42
-53.81
-59.16
-65.22
-72.74
-82.27
-93.78
-106.22
-117.34
-123.97
-122.86
-111.86
-90.87
-62.16
-29.74
1.89
29.08
49.86
64.01
72.39
76.16
76.18
73.02
67.27
59.94
52.49
46.51
43.14
42.59
44.10
46.23
47.49
46.90
44.30
40.26
35.67
31.28
27.27
23.21
18.25
11.59
2.93
-7.35
-18.27
-28.69
-37.74
-45.16
-51.34
-57.06
-63.29
-70.89
-80.50
-92.35
-105.93
-119.67
-130.92
-136.28
-132.62
-118.29
-93.91
-62.46
-28.39
3.76
30.71
51.03
65.00
73.75
78.42
79.74
78.08
73.93
68.21
62.27
57.51
54.86
54.31
55.02
55.64
55.01
52.62
48.76
44.30
40.17
36.81
33.88
30.40
25.14
17.26
6.71
-5.64
-18.29
-29.65
-38.73
-45.39
-50.42
-55.22
-61.29
-69.88
-81.58
-96.09
-111.92
-126.38
-135.92
-136.95
-127.00
-105.74
-75.39
-40.11
-4.78
26.43
51.16
68.92
80.60
87.49
90.70
90.90
88.65
84.65
79.94
75.69
72.78
71.46
71.27
71.19
70.19
67.67
63.71
59.04
54.62
51.04
48.19
45.13
40.51
33.10
22.46
9.17
-5.33
-19.21
-30.96
-39.88
-46.31
-51.39
-56.74
-63.90
-73.99
-87.29
-102.96
-118.82
-131.58
-137.40
-133.05
-117.08
-90.58
-57.06
-21.46
11.44
38.38
58.20
71.53
79.83
84.39
85.95
84.80
81.33
76.38
71.25
67.26
65.17
64.81
65.20
64.98
63.10
59.27
54.14
48.88
44.54
41.45
38.96
35.70
30.19
21.56
9.95
-3.48
-17.08
-29.29
-39.25
-46.94
-53.10
-58.89
-65.60
-74.36
-85.86
-99.93
-115.17
-128.77
-136.98
-136.13
-123.92
-100.50
-68.70
-33.24
0.84
29.63
51.30
65.96
74.88
79.49
80.76
79.24
75.47
70.38
65.28
61.54
59.97
60.45
61.96
63.01
62.32
59.38
54.61
49.08
43.99
39.97
36.80
33.45
28.58
21.12
10.87
-1.42
-14.27
-26.11
-35.85
-43.26
-49.01
-54.31
-60.56
-68.96
-80.22
-94.23
-109.83
-124.61
-135.16
-137.84
-129.94
-110.80
-82.31
-48.48
-14.20
16.29
40.52
57.96
69.49
76.39
79.58
79.51
76.49
71.18
64.82
59.04
55.25
54.05
54.98
56.71
57.69
56.71
53.44
48.37
42.56
36.99
32.21
28.03
23.65
18.01
10.29
0.33
-11.26
-23.31
-34.54
-44.04
-51.62
-57.79
-63.49
-69.81
-77.72
-87.86
-100.40
-114.60
-128.55
-139.17
-142.83
-136.52
-119.04
-91.76
-58.33
-23.45
8.60
35.16
55.55
70.52
81.34
88.99
93.88
96.03
95.56
92.96
89.19
85.40
82.50
80.91
80.40
80.34
79.98
78.75
76.46
73.21
69.20
64.57
59.33
53.32
46.32
38.14
28.75
18.28
7.17
-3.92
-14.29
-23.38
-31.02
-37.53
-43.57
-49.98
-57.55
-66.95
-78.60
-92.45
-107.53
-121.70
-131.68
-133.88
-125.58
-106.17
-77.59
-43.87
-9.78
20.73
45.46
64.07
77.36
86.39
91.88
94.24
93.87
91.47
88.14
84.99
82.78
81.60
80.97
80.08
78.37
75.73
72.57
69.49
66.84
64.47
61.68
57.56
51.44
43.27
33.73
23.90
14.79
6.86
-0.14
-7.01
-14.61
-23.34
-32.93
-42.51
-51.03
-57.80
-62.82
-66.89
-71.35
-77.68
-87.07
-99.92
-115.48
-131.62
-144.97
-151.59
-148.09
-132.84
-106.82
-73.48
-37.75
-4.54
22.72
42.69
55.85
63.63
67.52
68.55
67.36
64.49
60.72
56.99
54.18
52.72
52.44
52.68
52.67
51.91
50.47
48.78
47.40
46.52
45.80
44.44
41.65
37.03
30.87
24.02
17.44
11.73
6.86
2.19
-3.06
-9.45
-16.95
-25.04
-32.92
-39.95
-45.95
-51.25
-56.69
-63.30
-72.06
-83.44
-97.09
-111.51
-124.01
-131.17
-129.79
-117.96
-95.96
-66.47
-33.76
-2.46
23.90
43.65
56.97
65.08
69.41
70.91
70.10
67.37
63.34
58.97
55.22
52.75
51.69
51.65
52.02
52.31
52.22
51.69
50.71
49.16
46.80
43.34
38.60
32.69
26.07
19.36
13.09
7.34
1.73
-4.44
-11.78
-20.37
-29.71
-38.80
-46.71
-52.96
-57.75
-61.88
-66.54
-72.94
-81.94
-93.63
-106.95
-119.46
-127.73
-128.16
-118.25
-97.67
-68.54
-34.90
-1.40
28.03
51.13
67.35
77.42
82.56
83.96
82.60
79.37
75.18
71.01
67.71
65.71
64.90
64.69
64.37
63.50
62.03
60.30
58.69
57.32
55.82
53.60
50.00
44.71
37.88
30.02
21.76
13.52
5.33
-3.10
-12.17
-22.01
-32.37
-42.51
-51.56
-58.90
-64.41
-68.67
-72.79
-78.08
-85.67
-96.06
-108.76
-122.04
-132.98
-138.04
-134.04
-119.29
-94.46
-62.58
-28.16
4.16
30.98
50.76
63.73
71.11
74.29
74.42
72.34
68.79
64.61
60.66
57.63
55.77
54.85
54.29
53.52
52.23
50.55
48.93
47.81
47.28
46.87
45.67
42.69
37.38
29.90
21.11
12.17
3.96
-3.25
-9.85
-16.56
-23.91
-32.00
-40.35
-48.23
-55.06
-60.67
-65.40
-70.07
-75.72
-83.37
-93.55
-105.91
-118.84
-129.56
-134.55
-130.64
-116.15
-91.69
-60.19
-26.13
5.85
32.26
51.51
63.80
70.37
72.58
71.48
67.66
61.77
54.79
48.10
43.11
40.76
41.13
43.41
46.31
48.55
49.31
48.37
46.03
42.82
39.21
35.43
31.36
26.65
20.84
13.65
5.15
-4.19
-13.66
-22.53
-30.32
-36.98
-42.78
-48.22
-53.91
-60.56
-68.81
-79.06
-91.06
-103.42
-113.64
-118.42
-114.80
-101.22
-78.36
-49.20
-18.07
10.73
34.13
51.02
61.85
67.89
70.30
69.70
66.39
60.74
53.64
46.45
40.65
37.27
36.44
37.53
39.37
40.79
41.00
39.77
37.29
34.00
30.29
26.31
21.85
16.43
9.58
1.11
-8.70
-19.04
-28.97
-37.69
-44.89
-50.84
-56.22
-61.88
-68.73
-77.52
-88.67
-101.91
-115.85
-127.90
-134.59
-132.57
-119.86
-96.77
-66.05
-32.12
0.35
27.84
48.74
63.28
72.69
78.27
80.81
80.56
77.68
72.73
66.79
61.26
57.31
55.37
55.01
55.23
54.90
53.33
50.52
47.01
43.54
40.60
38.11
35.39
31.41
25.24
16.46
5.44
-6.72
-18.61
-29.00
-37.34
-43.86
-49.41
-55.17
-62.29
-71.64
-83.59
-97.74
-112.54
-125.30
-132.50
-130.76
-117.99
-94.44
-62.84
-27.74
5.96
34.46
55.99
70.72
80.07
85.63
88.43
88.86
86.97
82.99
77.70
72.27
67.89
65.27
64.29
64.17
63.81
62.34
59.49
55.57
51.23
47.03
43.16
39.22
34.44
27.99
19.33
8.55
-3.60
-15.94
-27.20
-36.54
-43.80
-49.54
-54.77
-60.66
-68.25
-78.29
-90.96
-105.66
-120.57
-132.71
-138.33
-134.09
-118.26
-91.70
-57.86
-21.74
11.69
38.94
58.64
71.30
78.33
81.19
80.86
77.91
72.96
66.97
61.25
57.11
55.32
55.79
57.56
59.21
59.48
57.73
54.23
49.83
45.51
41.78
38.44
34.65
29.35
21.86
12.21
1.22
-9.83
-19.75
-27.86
-34.25
-39.67
-45.17
-51.82
-60.47
-71.65
-85.29
-100.45
-115.07
-125.94
-129.43
-122.55
-104.27
-76.14
-42.08
-7.16
24.03
48.63
65.89
76.70
82.63
85.08
84.86
82.37
78.00
72.43
66.71
61.96
58.95
57.79
57.90
58.21
57.67
55.69
52.29
48.03
43.63
39.54
35.65
31.36
25.85
18.47
9.04
-2.05
-13.92
-25.48
-35.79
-44.28
-50.98
-56.49
-61.76
-67.89
-75.89
-86.47
-99.75
-114.92
-129.89
-141.34
-145.36
-138.66
-119.92
-90.65
-54.96
-18.31
14.32
39.88
57.74
69.15
76.01
79.90
81.62
81.38
79.36
76.03
72.20
68.72
66.15
64.59
63.75
63.12
62.22
60.79
58.72
56.03
52.74
48.85
44.29
39.02
33.00
26.18
18.53
9.98
0.56
-9.49
-19.69
-29.42
-38.13
-45.59
-52.04
-58.12
-64.64
-72.46
-82.26
-94.38
-108.49
-123.20
-135.92
-143.17
-141.44
-128.57
-104.65
-72.41
-36.36
-1.38
28.73
52.14
68.83
79.88
86.57
89.85
90.35
88.67
85.62
82.20
79.32
77.47
76.55
76.02
75.25
73.95
72.23
70.52
69.20
68.21
66.99
64.64
60.29
53.60
44.93
35.19
25.41
16.30
7.90
-0.25
-8.79
-18.06
-27.86
-37.47
-46.05
-53.09
-58.67
-63.57
-68.93
-76.01
-85.75
-98.41
-113.20
-127.99
-139.48
-143.82
-137.78
-119.94
-91.57
-56.35
-19.37
14.56
42.22
62.48
75.89
83.82
87.56
88.04
85.92
81.91
76.94
72.02
67.93
65.07
63.37
62.44
61.85
61.29
60.58
59.63
58.29
56.27
53.16
48.59
42.40
34.81
26.46
18.10
10.35
3.40
-3.10
-9.80
-17.24
-25.57
-34.41
-42.96
-50.50
-56.56
-61.26
-65.30
-69.84
-76.17
-85.29
-97.37
-111.21
-124.12
-132.30
-131.85
-120.12
-96.89
-64.65
-28.07
7.48
37.56
59.71
73.64
80.68
82.65
81.15
77.29
71.83
65.64
59.81
55.39
53.02
52.66
53.57
54.73
55.28
54.81
53.38
51.27
48.64
45.48
41.61
36.84
31.13
24.60
17.38
9.61
1.32
-7.47
-16.69
-26.10
-35.34
-43.94
-51.50
-57.85
-63.12
-67.87
-72.99
-79.58
-88.61
-100.44
-114.24
-127.74
-137.42
-139.33
-130.45
-109.90
-79.56
-43.68
-7.60
23.98
48.17
64.31
73.48
77.41
77.71
75.44
71.31
65.96
60.23
55.07
51.20
48.94
48.05
47.96
48.07
47.92
47.37
46.40
45.01
43.05
40.21
36.20
30.86
24.28
16.74
8.60
0.12
-8.60
-17.60
-26.81
-36.02
-44.80
-52.74
-59.63
-65.64
-71.32
-77.45
-84.95
-94.61
-106.75
-120.79
-134.84
-145.78
-149.80
-143.64
-125.81
-97.46
-62.13
-24.73
9.96
38.59
59.74
73.65
81.51
84.75
84.63
82.15
78.20
73.60
69.13
65.38
62.70
61.11
60.41
60.20
60.14
59.92
59.36
58.31
56.59
54.00
50.33
45.47
39.54
32.80
25.55
17.93
9.94
1.42
-7.67
-17.18
-26.69
-35.67
-43.71
-50.71
-56.90
-62.90
-69.60
-77.98
-88.88
-102.35
-117.26
-130.95
-139.60
-139.21
-127.09
-103.00
-69.58
-31.65
5.31
36.82
60.52
76.22
85.25
89.31
89.82
87.62
83.27
77.49
71.28
65.85
62.18
60.63
60.82
61.81
62.59
62.37
60.85
58.14
54.57
50.46
45.99
41.18
35.88
29.86
22.86
14.67
5.28
-5.07
-15.86
-26.41
-36.08
-44.46
-51.50
-57.56
-63.31
-69.70
-77.78
-88.41
-101.76
-116.74
-130.73
-139.88
-140.22
-129.03
-106.07
-73.91
-37.24
-1.37
29.39
52.66
68.15
76.90
80.38
79.84
76.19
70.28
63.20
56.37
51.16
48.57
48.67
50.71
53.35
55.24
55.47
53.88
50.88
47.12
43.18
39.21
34.94
29.82
23.21
14.74
4.45
-7.08
-18.87
-29.83
-39.11
-46.45
-52.24
-57.38
-63.05
-70.39
-80.27
-92.97
-107.83
-122.89
-134.99
-140.28
-135.38
-118.71
-91.29
-56.69
-19.95
13.97
41.61
61.56
74.20
80.86
82.93
81.51
77.43
71.58
65.11
59.36
55.46
53.94
54.46
55.90
56.87
56.27
53.69
49.59
44.90
40.56
37.05
34.06
30.69
25.80
18.49
8.58
-3.24
-15.69
-27.28
-36.92
-44.29
-49.97
-55.11
-61.11
-69.20
-80.09
-93.82
-109.32
-124.30
-135.37
-138.69
-131.18
-111.77
-82.11
-46.25
-9.41
23.69
50.14
69.11
81.43
88.50
91.58
91.46
88.68
83.92
78.17
72.58
68.20
65.59
64.69
64.82
65.01
64.32
62.22
58.73
54.32
49.69
45.31
41.21
36.86
31.42
24.10
14.56
3.16
-9.16
-21.17
-31.83
-40.62
-47.70
-53.81
-59.98
-67.23
-76.39
-87.95
-101.89
-117.31
-132.09
-142.96
-146.13
-138.43
-118.68
-88.46
-51.83
-14.09
19.91
47.13
66.77
79.68
87.41
91.29
92.10
90.34
86.62
81.88
77.30
73.93
72.26
72.11
72.60
72.71
71.59
68.93
64.97
60.31
55.58
51.08
46.70
41.94
36.19
28.91
19.85
9.13
-2.78
-15.07
-26.90
-37.47
-46.32
-53.52
-59.65
-65.72
-72.91
-82.31
-94.53
-109.29
-124.98
-138.62
-146.28
-144.21
-130.16
-104.49
-70.35
-32.81
2.81
32.55
54.61
69.24
77.81
81.82
82.32
79.93
75.26
69.29
63.37
58.86
56.63
56.71
58.23
59.81
60.14
58.48
54.93
50.29
45.61
41.67
38.54
35.54
31.54
25.45
16.72
5.62
-6.86
-19.32
-30.46
-39.51
-46.42
-51.81
-56.76
-62.53
-70.25
-80.72
-94.03
-109.23
-123.98
-134.80
-137.78
