1629201266.00
64.000000
-0.00
-0.00
-0.00
-0.00
-0.00
-0.00
-0.00
-0.00
-0.00
-0.00
0.00
0.01
0.01
-0.00
-0.03
-0.05
-0.05
0.00
0.13
0.36
0.66
1.01
1.37
1.72
2.06
2.40
2.79
3.24
3.80
4.42
5.06
5.66
6.20
6.68
7.15
7.68
8.31
9.14
10.09
11.04
11.88
12.56
13.14
13.76
14.65
15.96
17.91
20.32
22.90
25.38
27.58
29.57
31.68
34.32
37.81
42.54
48.15
54.10
59.83
64.97
69.58
74.14
79.34
85.71
93.76
103.00
112.62
121.73
129.77
136.75
143.30
150.75
157.77
166.64
177.95
191.79
206.97
220.57
228.25
225.36
208.53
176.87
132.76
80.05
23.07
-34.94
-92.44
-149.16
-205.23
-260.37
-313.74
-363.87
-409.83
-450.91
-486.50
-515.74
-537.23
-549.22
-549.96
-538.37
-514.21
-478.67
-433.88
-382.45
-327.02
-269.84
-212.63
-156.66
-102.95
-52.37
-5.90
35.58
71.43
101.35
125.50
144.38
158.69
169.15
176.37
180.75
182.57
182.07
179.51
175.23
169.65
163.18
156.15
148.81
141.30
133.69
126.02
118.33
110.69
103.16
95.83
88.71
81.85
75.24
68.88
62.81
57.03
51.59
46.49
41.74
37.31
33.19
29.32
25.72
22.38
19.32
16.57
14.13
11.98
10.09
8.37
6.78
5.30
3.93
2.73
1.77
1.08
0.63
0.32
0.01
-0.43
-1.05
-1.79
-2.50
-3.01
-3.20
-3.10
-2.91
-2.89
-3.28
-4.15
-5.34
-6.55
-7.39
-7.64
-7.35
-6.86
-6.68
-7.24
-8.69
-10.76
-12.89
-14.46
-15.07
-14.75
-13.93
-13.31
-13.52
-14.96
-17.73
-21.52
-25.57
-28.69
-29.45
-26.63
-19.90
-10.13
0.70
10.20
16.61
19.52
19.86
19.33
19.23
19.81
20.28
19.34
16.19
10.99
5.01
0.17
-1.51
1.47
9.66
22.22
37.04
51.11
61.43
66.00
64.35
57.70
48.38
38.84
30.94
25.52
22.50
21.33
21.24
21.44
21.28
20.22
18.02
14.74
10.81
6.59
2.46
-1.39
-4.93
-8.20
-11.20
-13.85
-16.17
-18.27
-20.45
-22.92
-25.59
-28.03
-29.63
-29.77
-28.31
-25.51
-22.03
-18.68
-16.07
-14.54
-14.11
-14.57
-15.49
-16.38
-16.71
-16.19
-14.85
-13.07
-11.51
-10.77
-11.16
-12.42
-13.97
-15.07
-15.24
-14.41
-12.97
-11.66
-11.19
-12.04
-14.31
-17.70
-21.27
-23.50
-22.45
-16.29
-4.20
12.83
31.91
49.03
60.44
64.13
60.48
51.86
41.54
32.26
25.41
21.04
18.43
16.72
15.46
14.54
13.59
12.61
11.71
11.10
11.03
11.70
13.12
15.09
17.13
18.63
19.00
17.82
14.92
10.64
5.63
0.69
-3.58
-6.98
-9.73
-12.15
-14.48
-16.75
-18.76
-20.26
-21.19
-21.70
-22.09
-22.67
-23.55
-24.67
-25.88
-27.06
-28.23
-29.69
-31.88
-35.19
-39.80
-45.36
-51.05
-55.92
-59.24
-60.96
-61.76
-62.88
-65.69
-71.26
-80.07
-91.85
-105.24
-117.64
-125.41
-124.61
-112.37
-88.20
-54.66
-16.81
19.42
49.19
70.12
82.52
88.62
91.14
92.16
92.70
92.87
92.44
91.19
89.21
86.73
84.05
81.39
78.90
76.58
74.52
72.83
71.69
71.20
71.19
71.12
70.18
67.50
62.55
55.36
46.57
37.26
28.59
21.40
15.95
11.87
8.48
5.10
1.40
-2.53
-6.36
-9.82
-12.89
-15.80
-18.88
-22.28
-25.91
-29.49
-32.81
-35.96
-39.26
-43.22
-48.20
-54.26
-61.01
-67.83
-73.93
-78.77
-82.21
-84.69
-87.20
-91.04
-97.52
-107.35
-120.16
-134.06
-145.74
-151.17
-146.76
-130.69
-103.77
-69.43
-32.72
1.19
28.55
47.87
59.81
66.46
70.18
72.81
75.33
77.98
80.63
83.11
85.31
87.13
88.40
88.82
88.18
86.53
84.32
82.23
80.93
80.70
81.21
81.67
81.08
78.66
74.06
67.42
59.22
50.08
40.64
31.45
22.98
15.59
9.50
4.77
1.27
-1.38
-3.78
-6.57
-10.22
-14.87
-20.20
-25.61
-30.46
-34.49
-38.03
-41.83
-46.72
-53.13
-60.78
-68.74
-75.86
-81.31
-84.94
-87.36
-89.61
-92.89
-98.25
-106.35
-117.19
-129.64
-141.16
-148.00
-146.09
-132.46
-106.78
-71.80
-32.67
4.75
35.83
58.40
72.81
81.06
85.51
88.00
89.53
90.46
90.85
90.78
90.39
89.87
89.38
89.01
88.73
88.43
88.03
87.56
87.20
87.15
87.38
87.38
86.27
83.06
77.16
68.67
58.45
47.83
38.08
30.03
23.88
19.34
15.80
12.70
9.65
6.47
3.09
-0.60
-4.75
-9.56
-15.11
-21.25
-27.69
-34.12
-40.44
-46.81
-53.56
-60.83
-68.38
-75.59
-81.76
-86.52
-90.06
-93.20
-97.08
-102.82
-111.24
-122.63
-136.30
-150.35
-161.54
-165.84
-159.71
-141.51
-112.54
-76.87
-40.08
-7.34
18.22
36.04
47.68
55.56
61.75
67.42
72.94
78.19
83.04
87.44
91.35
94.59
96.85
97.90
97.72
96.63
95.23
94.19
93.93
94.40
95.11
95.27
94.07
91.00
86.00
79.46
72.12
64.87
58.46
53.26
49.15
45.65
42.11
38.05
33.37
28.35
23.49
19.19
15.61
12.48
9.25
5.21
-0.16
-7.08
-15.25
-23.96
-32.29
-39.48
-45.31
-50.15
-54.80
-60.07
-66.37
-73.47
-80.71
-87.33
-92.88
-97.50
-101.86
-106.91
-113.68
-123.06
-135.45
-150.34
-165.76
-178.24
-183.40
-177.43
-158.71
-128.85
-92.41
-55.33
-22.82
2.26
19.80
31.65
40.17
47.12
53.35
59.09
64.42
69.56
74.70
79.75
84.29
87.77
89.85
90.64
90.69
90.70
91.22
92.41
94.05
95.59
96.38
95.79
93.44
89.31
83.75
77.37
70.84
64.63
58.90
53.51
48.25
43.04
38.02
33.50
29.71
26.61
23.91
21.09
17.61
13.08
7.45
0.91
-6.12
-13.19
-20.04
-26.73
-33.58
-40.98
-49.06
-57.51
-65.64
-72.67
-78.18
-82.35
-85.97
-90.12
-95.83
-103.88
-114.52
-127.34
-140.87
-152.43
-158.44
-155.27
-140.68
-114.89
-80.95
-43.91
-9.19
19.16
39.46
52.38
60.05
64.88
68.69
72.33
75.95
79.28
82.03
84.04
85.35
86.09
86.47
86.65
86.86
87.33
88.27
89.78
91.60
93.12
93.49
91.92
87.93
81.57
73.38
64.12
54.68
45.83
38.14
31.78
26.63
22.19
17.89
13.23
7.92
1.97
-4.47
-11.15
-17.70
-23.68
-28.70
-32.62
-35.78
-39.02
-43.39
-49.69
-57.93
-67.30
-76.46
-84.15
-89.72
-93.36
-95.99
-98.86
-103.29
-110.37
-120.71
-134.01
-148.58
-161.11
-167.29
-163.10
-146.37
-118.04
-82.09
-44.33
-10.37
16.10
34.16
45.20
51.76
56.30
60.45
64.95
69.96
75.37
80.91
86.17
90.59
93.59
94.78
94.23
92.47
90.41
88.98
88.83
90.04
92.03
93.72
93.93
91.74
86.82
79.56
70.91
62.01
53.83
46.94
41.41
37.03
33.42
30.26
27.29
24.30
21.04
17.20
12.45
6.63
-0.18
-7.62
-15.10
-22.03
-28.00
-32.98
-37.37
-41.88
-47.30
-54.09
-62.24
-71.10
-79.67
-87.00
-92.62
-96.74
-100.27
-104.49
-110.67
-119.74
-131.76
-145.58
-158.58
-166.99
-166.84
-155.28
-131.95
-99.40
-62.55
-27.00
2.68
24.31
38.20
46.40
51.44
55.36
59.31
63.64
68.29
73.05
77.63
81.66
84.70
86.43
86.71
85.83
84.41
83.25
82.96
83.76
85.30
86.82
87.44
86.36
83.17
77.83
70.65
62.17
53.13
44.35
36.59
30.34
25.70
22.29
19.40
16.27
12.34
7.43
1.78
-4.14
-9.88
-15.15
-20.04
-25.00
-30.66
-37.52
-45.66
-54.58
-63.33
-70.83
-76.37
-79.91
-82.17
-84.44
-88.20
-94.73
-104.68
-117.65
-131.83
-143.94
-149.80
-145.53
-129.05
-101.17
-65.70
-28.28
5.46
31.69
49.29
59.49
64.76
67.56
69.54
71.43
73.41
75.45
77.50
79.49
81.23
82.45
82.88
82.40
81.07
79.21
77.26
75.66
74.71
74.34
74.15
73.49
71.64
68.12
62.82
56.00
48.15
39.95
32.01
24.88
18.95
14.38
10.92
7.99
4.81
0.73
-4.53
-10.78
-17.45
-23.92
-29.84
-35.28
-40.66
-46.55
-53.35
-61.03
-69.03
-76.47
-82.54
-86.90
-89.93
-92.61
-96.21
-101.90
-110.38
-121.70
-134.98
-148.17
-158.04
-160.72
-152.93
-133.42
-103.90
-68.79
-33.76
-3.76
18.65
33.60
43.17
49.90
55.71
61.48
67.33
73.04
78.40
83.21
87.20
90.02
91.42
91.43
90.32
88.61
86.85
85.42
84.49
83.85
82.97
81.14
77.62
71.97
64.29
55.22
45.78
36.95
29.39
23.21
18.14
13.68
9.43
5.21
1.02
-3.14
-7.27
-11.43
-15.52
-19.31
-22.53
-25.09
-27.38
-30.34
-35.16
-42.75
-53.26
-65.90
-79.08
-91.03
-100.44
-106.88
-110.89
-113.70
-116.73
-121.29
-128.24
-137.71
-148.75
-159.13
-165.44
-163.98
-152.00
-128.90
-96.82
-60.03
-23.56
8.44
33.73
52.22
65.30
74.87
82.60
89.56
96.12
102.15
107.22
110.84
112.74
113.05
112.31
111.24
110.40
109.98
109.76
109.32
108.13
105.73
101.63
95.35
86.55
75.17
61.72
47.27
33.32
21.40
12.73
7.83
6.56
8.19
11.58
15.42
18.43
19.56
18.18
14.26
8.21
0.68
-7.79
-16.98
-26.98
-37.86
-49.32
-60.57
-70.51
-78.23
-83.53
-87.06
-90.15
-94.42
-101.31
-111.55
-124.76
-139.07
-151.08
-156.56
-151.76
-134.95
-107.33
-72.90
-37.02
-4.67
21.21
40.02
53.02
62.16
69.13
74.97
80.23
85.19
89.97
94.50
98.41
101.10
102.04
101.01
98.25
94.44
90.54
87.48
85.84
85.55
85.90
85.71
83.77
79.37
72.59
64.24
55.52
47.47
40.66
35.04
30.18
25.61
21.04
16.46
12.04
7.92
4.06
0.19
-4.07
-9.03
-14.67
-20.66
-26.35
-31.22
-35.04
-38.15
-41.28
-45.26
-50.60
-57.22
-64.48
-71.48
-77.39
-81.80
-84.87
-87.28
-90.08
-94.48
-101.57
-111.86
-124.68
-137.81
-147.64
-150.02
-141.70
-121.87
-92.73
-59.15
-27.04
-1.38
15.25
23.08
24.40
22.15
18.71
15.31
12.14
8.94
5.52
2.06
-1.00
-3.13
-3.88
-3.02
-0.54
3.47
8.82
15.29
22.63
30.44
38.07
44.60
48.97
50.37
48.54
43.98
37.92
31.90
27.26
24.73
24.21
24.89
25.68
25.61
24.26
21.87
19.08
16.47
14.13
11.41
7.21
0.55
-8.80
-20.05
-31.71
-42.32
-51.11
-58.31
-64.89
-72.13
-81.10
-92.47
-106.35
-122.11
-138.02
-151.08
-157.54
-154.05
-139.09
-113.86
-82.20
-49.22
-19.42
4.62
22.70
36.27
47.26
57.04
66.13
74.36
81.48
87.39
92.22
96.03
98.66
99.72
98.73
95.56
90.55
84.63
79.00
74.67
72.10
71.08
70.91
70.78
70.10
68.62
66.36
63.42
59.90
56.01
52.10
48.61
45.88
43.99
42.60
41.05
38.72
35.20
30.50
24.99
19.13
13.24
7.29
0.88
-6.52
-15.31
-25.48
-36.43
-47.11
-56.35
-63.27
-67.64
-70.13
-72.06
-75.11
-80.97
-90.76
-104.64
-121.29
-137.82
-149.97
-153.25
-144.47
-123.14
-92.07
-56.60
-22.86
4.27
22.68
33.12
38.28
41.23
44.23
48.19
52.96
57.95
62.64
66.78
70.31
73.16
75.21
76.38
76.78
76.84
77.24
78.53
80.90
83.94
86.65
87.80
86.37
81.87
74.54
65.28
55.44
46.37
39.16
34.35
31.88
31.20
31.48
31.85
31.56
30.01
26.89
22.33
16.86
11.36
6.69
3.17
0.34
-2.95
-7.87
-15.05
-24.04
-33.67
-42.55
-49.90
-55.85
-61.34
-67.63
-75.83
-86.63
-100.26
-116.32
-133.42
-148.97
-159.41
-160.95
-150.96
-129.20
-98.32
-63.09
-28.89
0.04
21.75
36.56
46.19
52.64
57.27
60.69
63.11
64.82
66.31
68.15
70.55
73.20
75.40
76.46
76.08
74.52
72.45
70.65
69.64
69.59
70.22
71.01
71.28
70.52
68.48
65.31
61.44
57.40
53.44
49.46
45.02
39.68
33.24
25.95
18.36
11.05
4.39
-1.56
-7.01
-12.25
-17.60
-23.29
-29.38
-35.76
-42.16
-48.22
-53.83
-59.25
-65.28
-73.06
-83.60
-96.98
-111.75
-124.75
-131.79
-129.00
-114.40
-89.00
-56.68
-22.98
6.83
29.40
43.92
51.75
55.19
56.31
56.42
56.07
55.39
54.48
53.43
52.26
50.85
49.09
47.01
44.84
42.97
41.77
41.38
41.57
41.78
41.22
39.15
35.04
28.84
20.96
12.07
2.86
-6.37
-15.73
-25.62
-36.27
-47.45
-58.34
-67.81
-74.90
-79.24
-81.35
-82.52
-84.54
-89.32
-98.31
-111.86
-128.60
-145.26
-157.24
-159.93
-150.50
-129.15
-99.31
-66.50
-36.29
-12.56
3.46
12.85
17.77
20.19
21.23
21.13
19.87
17.68
15.23
13.38
12.73
13.32
14.73
16.44
18.32
20.82
24.73
30.64
38.32
46.62
53.79
58.18
58.99
56.39
51.17
44.23
36.08
26.78
16.19
4.26
-8.82
-22.72
-37.00
-51.14
-64.50
-76.36
-86.20
-94.05
-100.76
-107.83
-116.73
-128.06
-140.76
-152.04
-158.00
-154.98
-140.81
-115.89
-83.24
-47.85
-15.33
9.67
24.67
29.89
27.92
22.72
18.19
17.03
20.04
26.25
33.62
40.18
44.88
47.88
50.20
52.87
56.26
59.81
62.49
63.60
63.50
63.89
67.35
76.44
92.59
115.30
142.04
168.89
191.59
206.87
213.21
210.99
201.93
188.21
171.73
153.77
135.09
116.24
97.77
80.17
63.69
48.26
33.49
18.85
3.92
-11.44
-27.14
-42.98
-58.84
-74.90
-91.52
-108.84
-126.08
-141.05
-150.23
-149.83
-137.41
-113.32
-81.05
-46.26
-14.81
9.32
25.00
33.70
38.01
40.23
41.46
41.68
40.50
37.79
34.00
29.99
26.54
24.08
22.58
21.69
21.04
20.51
20.27
20.54
21.36
22.31
22.43
20.64
16.22
9.30
1.12
-6.33
-11.01
-11.60
-8.02
-1.38
6.38
13.22
17.57
18.81
17.28
14.08
10.52
7.51
5.02
2.05
-2.88
-10.87
-21.94
-34.78
-47.27
-57.50
-64.70
-69.57
-73.93
-79.85
-88.82
-101.35
-116.95
-134.18
-150.62
-163.05
-167.91
-162.26
-144.96
-117.50
-83.74
-48.70
-16.92
8.88
28.19
42.12
52.36
60.19
66.17
70.40
72.83
73.61
73.02
71.44
69.26
67.00
65.41
65.40
67.86
73.24
81.28
90.93
100.54
108.39
113.20
114.44
112.41
107.98
102.14
95.72
89.25
83.04
77.29
72.21
67.94
64.46
61.50
58.58
55.23
51.16
46.50
41.66
37.19
33.37
29.97
26.26
21.25
14.12
4.63
-6.67
-18.62
-29.81
-39.09
-45.93
-50.57
-53.89
-57.17
-61.78
-68.89
-79.20
-92.61
-107.77
-121.92
-131.27
-131.89
-121.21
-99.22
-68.89
-35.36
-4.26
20.21
36.34
44.91
48.21
48.66
47.92
46.67
45.05
43.12
41.14
39.52
38.60
38.49
39.06
40.12
41.46
42.90
44.25
45.23
45.50
44.71
42.55
38.80
33.44
26.66
18.89
10.74
2.84
-4.35
-10.62
-16.00
-20.68
-24.80
-28.48
-31.80
-34.97
-38.33
-42.31
-47.14
-52.67
-58.35
-63.45
-67.37
-69.98
-71.76
-73.66
-76.83
-82.29
-90.59
-101.53
-113.72
-124.56
-130.50
-127.86
-114.17
-89.28
-55.87
-18.88
16.03
44.21
63.32
73.62
77.25
76.85
74.53
71.32
67.38
62.64
57.31
52.09
47.85
45.19
44.12
44.00
43.93
43.28
41.94
40.28
38.74
37.32
35.37
31.85
25.82
17.04
6.24
-5.07
-15.16
-22.71
-27.31
-29.57
-30.85
-32.67
-36.16
-41.56
-48.19
-54.80
-60.09
-63.36
-64.81
-65.53
-67.08
-71.00
-78.22
-88.67
-100.94
-112.31
-119.20
-118.00
-106.29
-83.90
-53.32
-19.13
13.38
39.82
58.01
68.20
72.45
73.34
72.85
71.87
70.33
67.85
64.33
60.21
56.22
53.01
50.80
49.28
47.91
46.28
44.36
42.41
40.67
39.01
36.80
33.11
27.20
18.94
9.00
-1.32
-10.58
-17.78
-22.73
-26.10
-29.11
-32.97
-38.32
-44.82
-51.39
-56.64
-59.59
-60.21
-59.47
-59.10
-60.96
-66.35
-75.58
-87.63
-100.06
-109.36
-111.72
-104.15
-85.64
-57.81
-24.66
8.54
36.96
57.64
70.13
76.09
78.16
78.70
79.02
79.28
78.90
77.27
74.24
70.21
65.90
62.02
58.99
56.79
55.17
53.79
52.35
50.63
48.40
45.42
41.37
36.02
29.32
21.49
12.95
4.29
-3.82
-10.84
-16.39
-20.36
-22.97
-24.74
-26.35
-28.52
-31.82
-36.48
-42.30
-48.66
-54.67
-59.53
-62.83
-64.80
-66.31
-68.56
-72.74
-79.65
-89.42
-101.24
-113.18
-122.35
-125.32
-119.12
-102.39
-76.15
-43.89
-10.60
18.77
40.92
54.95
62.18
65.08
65.99
66.31
66.36
65.77
64.18
61.70
58.81
56.21
54.36
53.33
52.86
52.60
52.31
52.00
51.74
51.45
50.76
49.01
45.52
39.87
32.17
23.16
14.03
6.10
0.32
-3.11
-4.80
-5.95
-7.77
-10.97
-15.39
-20.19
-24.30
-27.01
-28.37
-29.12
-30.37
-32.99
-37.20
-42.51
-47.97
-52.58
-55.80
-57.72
-59.08
-61.12
-65.17
-72.22
-82.33
-94.22
-105.18
-111.56
-109.73
-97.43
-74.77
-44.49
-11.17
20.12
45.42
62.78
72.51
76.50
77.20
76.66
75.96
75.27
74.15
72.20
69.42
66.30
63.56
61.70
60.68
60.09
59.33
58.04
56.25
54.23
52.18
49.97
47.10
43.03
37.41
30.44
22.81
15.54
9.64
5.73
3.81
3.25
2.96
1.84
-0.77
-4.86
-9.70
-14.23
-17.57
-19.40
-20.11
-20.66
-22.19
-25.47
-30.63
-37.04
-43.57
-49.00
-52.57
-54.36
-55.31
-56.95
-60.81
-67.88
-78.08
-90.01
-101.09
-107.91
-107.12
-96.44
-75.60
-46.80
-14.31
16.71
41.84
58.69
67.44
70.27
70.10
69.28
68.79
68.35
67.08
64.41
60.45
56.00
52.01
49.11
47.26
45.99
44.69
42.97
40.80
38.41
35.98
33.47
30.60
26.95
22.21
16.37
9.85
3.42
-2.05
-5.93
-8.02
-8.76
-8.99
-9.60
-11.19
-13.82
-17.04
-20.14
-22.54
-24.08
-25.03
-26.00
-27.67
-30.57
-34.81
-40.10
-45.81
-51.19
-55.57
-58.69
-60.87
-62.87
-65.81
-70.72
-78.22
-88.03
-98.81
-108.11
-112.76
-109.65
-96.83
-74.40
-44.83
-12.36
18.17
42.92
60.02
69.73
73.77
74.20
72.62
69.86
66.21
61.88
57.25
52.88
49.32
46.91
45.74
45.66
46.43
47.72
49.07
50.04
50.19
49.21
46.90
43.27
38.43
32.64
26.28
19.77
13.53
7.87
2.93
-1.23
-4.59
-7.20
-9.19
-10.82
-12.56
-14.95
-18.41
-23.06
-28.61
-34.43
-39.76
-44.01
-46.96
-48.91
-50.54
-52.86
-56.96
-63.68
-73.31
-85.15
-97.23
-106.42
-109.12
-102.25
-84.54
-57.34
-24.53
8.61
37.03
57.50
69.46
74.62
75.90
75.95
76.29
77.19
78.02
78.04
76.86
74.59
71.63
68.45
65.38
62.57
60.07
57.95
56.24
54.88
53.59
51.86
49.05
44.66
38.57
31.15
23.23
15.76
9.48
4.63
0.91
-2.27
-5.41
-8.76
-12.19
-15.41
-18.18
-20.50
-22.71
-25.33
-28.86
-33.55
-39.24
-45.32
-50.95
-55.43
-58.52
-60.66
-62.91
-66.64
-72.96
-82.24
-93.64
-104.95
-112.95
-114.04
-105.38
-86.05
-57.66
-24.16
9.21
37.60
57.96
69.83
74.93
76.10
75.99
76.18
76.91
77.55
77.16
75.18
71.61
66.99
62.11
57.68
54.05
51.22
48.87
46.70
44.52
42.26
39.83
37.00
33.34
28.41
22.00
14.41
6.37
-1.06
-6.95
-10.76
-12.55
-12.93
-12.85
-13.26
-14.77
-17.47
-20.95
-24.47
-27.29
-29.05
-29.86
-30.29
-31.06
-32.82
-35.91
-40.28
-45.43
-50.62
-55.06
-58.20
-60.03
-61.21
-62.91
-66.35
-72.39
-80.98
-90.97
-100.07
-105.35
-103.89
-93.68
-74.40
-47.85
-17.61
11.91
36.77
54.64
65.29
70.10
71.18
70.29
68.33
65.39
61.28
56.16
50.66
45.71
42.17
40.38
40.10
40.71
41.56
42.19
42.46
42.33
41.69
40.31
37.86
34.12
29.19
23.51
17.71
12.50
8.46
5.80
4.37
3.66
2.97
1.60
-0.84
-4.30
-8.29
-12.11
-15.15
-17.21
-18.64
-20.19
-22.68
-26.64
-31.98
-37.99
-43.67
-48.13
-51.03
-52.82
-54.58
-57.72
-63.46
-72.23
-83.36
-94.91
-103.83
-106.62
-100.35
-83.70
-57.68
-25.64
7.61
37.17
59.54
73.42
79.75
80.92
79.57
77.65
75.99
74.52
72.77
70.41
67.49
64.29
61.02
57.65
53.92
49.60
44.81
39.98
35.64
32.02
28.81
25.25
20.56
14.39
7.08
-0.47
-7.29
-12.74
-16.82
-20.06
-23.23
-26.87
-31.08
-35.47
-39.42
-42.44
-44.40
-45.69
-47.06
-49.27
-52.78
-57.43
-62.58
-67.25
-70.59
-72.32
-72.85
-73.26
-75.03
-79.47
-87.18
-97.52
-108.29
-115.97
-116.48
-106.40
-84.22
-51.22
-11.35
29.68
66.11
93.75
110.92
118.49
118.97
115.23
109.46
102.75
95.42
87.58
79.63
72.49
67.23
64.55
64.32
65.45
66.24
65.05
60.97
54.24
46.08
38.12
31.64
26.96
23.35
19.52
14.42
7.83
0.60
-5.78
-9.99
-11.56
-11.21
-10.54
-11.40
-15.08
-21.81
-30.62
-39.84
-47.71
-53.07
-55.79
-56.82
-57.78
-60.48
-66.33
-75.94
-88.81
-103.11
-115.76
-122.87
-120.76
-107.26
-82.77
-50.50
-15.63
16.38
41.56
58.47
68.16
73.15
76.12
78.79
81.59
84.00
85.13
84.33
81.48
76.97
71.54
65.89
60.52
55.62
51.20
47.25
43.89
41.30
39.42
37.79
35.47
31.38
24.83
15.90
5.59
-4.49
-12.76
-18.24
-20.98
-22.02
-22.93
-25.19
-29.54
-35.73
-42.63
-48.78
-53.08
-55.26
-56.02
-56.78
-59.07
-64.13
-72.46
-83.57
-95.78
-106.19
-111.06
-106.86
-91.61
-65.87
-33.12
1.24
31.72
54.49
68.50
75.24
77.51
78.02
78.37
78.82
78.84
77.75
75.24
71.59
67.36
63.20
59.56
56.59
54.21
52.27
50.59
48.99
47.26
45.03
41.88
37.47
31.70
24.85
17.50
10.40
4.24
-0.57
-3.92
-6.02
-7.31
-8.25
-9.20
-10.28
-11.46
-12.59
-13.65
-14.80
-16.39
-18.67
-21.65
-25.02
-28.26
-30.95
-33.01
-34.77
-36.81
-39.58
-43.15
-47.05
-50.53
-52.93
-53.99
-54.14
-54.35
-55.90
-59.91
-66.85
-76.16
-86.08
-93.85
-96.24
-90.59
-75.69
-52.46
-23.88
5.74
32.12
52.18
64.81
70.84
72.32
71.49
70.02
68.53
66.88
64.53
61.19
57.06
52.74
49.00
46.32
44.77
43.97
43.34
42.49
41.29
39.86
38.29
36.52
34.18
30.86
26.31
20.78
14.90
9.51
5.29
2.44
0.72
-0.37
-1.30
-2.33
-3.55
-4.98
-6.72
-8.95
-11.74
-14.97
-18.29
-21.24
-23.52
-25.09
-26.23
-27.43
-29.14
-31.68
-35.04
-38.93
-42.78
-46.02
-48.27
-49.58
-50.42
-51.63
-54.09
-58.45
-64.82
-72.52
-79.91
-84.61
-83.95
-75.85
-59.68
-36.76
-10.28
15.69
37.42
52.62
60.86
63.31
61.87
58.32
53.78
48.68
43.09
37.11
31.24
26.32
23.27
22.62
24.22
27.20
30.26
32.26
32.58
31.24
28.69
25.48
21.93
18.19
14.28
10.35
6.58
3.14
-0.01
-3.03
-6.16
-9.46
-12.70
-15.52
-17.60
-18.88
-19.61
-20.38
-21.78
-24.24
-27.82
-32.14
-36.57
-40.43
-43.33
-45.43
-47.47
-50.50
-55.54
-62.99
-72.19
-81.29
-87.44
-87.55
-79.27
-61.92
-37.00
-7.91
20.92
45.43
62.96
72.86
76.23
75.13
71.63
67.20
62.53
57.80
53.04
48.49
44.60
41.80
40.28
39.83
39.92
39.90
39.32
38.00
36.09
33.87
31.57
29.21
26.64
23.58
19.73
15.01
9.56
3.82
-1.60
-6.10
-9.34
-11.45
-12.94
-14.60
-17.20
-21.16
-26.46
-32.49
-38.36
-43.22
-46.54
-48.42
-49.55
-50.97
-53.74
-58.61
-65.75
-74.64
-83.95
-91.56
-94.86
-91.36
-79.51
-59.54
-33.66
-5.61
20.50
41.46
55.80
63.78
66.85
66.64
64.39
60.69
55.78
49.89
43.52
37.43
32.41
29.08
27.71
28.12
29.82
32.08
34.11
35.18
34.74
32.42
28.14
22.11
14.87
7.14
-0.22
-6.56
-11.56
-15.34
-18.40
-21.36
-24.68
-28.52
-32.64
-36.63
-40.12
-43.04
-45.75
-48.96
-53.57
-60.33
-69.44
-80.16
-90.57
-97.73
-98.39
-90.05
-72.05
-46.11
-16.03
13.50
38.39
56.31
67.06
72.16
73.86
74.08
73.86
73.29
71.93
69.35
65.50
60.89
56.28
52.35
49.37
47.14
45.14
42.88
40.20
37.34
34.62
32.17
29.65
26.29
21.27
14.16
5.33
-4.10
-12.57
-18.77
-22.11
-23.12
-23.10
-23.68
-26.00
-30.30
-35.84
-41.31
-45.46
-47.67
-48.18
-47.98
-48.49
-51.09
-56.76
-65.80
-77.48
-89.86
-99.84
-103.74
-98.34
-82.20
-56.48
-24.92
7.29
35.20
55.68
68.15
74.20
76.34
76.79
76.70
76.18
74.81
72.24
68.57
64.19
59.67
55.44
51.72
48.58
46.05
44.17
43.01
42.58
42.67
42.81
42.33
40.47
36.73
31.11
24.15
16.82
10.13
4.79
0.99
-1.54
-3.38
-5.07
-6.99
-9.24
-11.73
-14.36
-17.14
-20.26
-24.12
-29.07
-35.17
-41.99
-48.69
-54.25
-57.92
-59.59
-60.02
-60.61
-63.02
-68.51
-77.44
-88.67
-99.56
-106.42
-105.50
-94.32
-72.78
-43.49
-11.07
19.26
43.38
59.38
67.64
70.17
69.41
67.29
64.80
62.13
59.19
56.02
52.88
50.17
48.17
46.88
45.98
45.06
43.84
42.30
40.70
39.36
38.38
37.52
36.18
33.67
29.50
23.62
16.56
9.24
2.66
-2.40
-5.64
-7.29
-7.99
-8.53
-9.58
-11.39
-13.85
-16.52
-18.90
-20.75
-22.10
-23.30
-24.84
-27.12
-30.32
-34.31
-38.76
-43.22
-47.23
-50.45
-52.79
-54.45
-55.99
-58.30
-62.36
-68.78
-77.32
-86.55
-93.85
-95.95
-90.03
-74.79
-51.23
-22.54
6.77
32.34
51.25
62.71
67.84
68.78
67.66
65.87
63.86
61.50
58.57
55.16
51.77
49.14
47.86
48.11
49.54
51.46
53.10
53.92
53.76
52.64
50.61
47.55
43.22
37.46
30.40
22.64
15.16
8.92
4.60
2.26
1.29
0.64
-0.82
-3.89
-8.67
-14.55
-20.48
-25.33
-28.48
-30.10
-30.98
-32.21
-34.60
-38.33
-42.88
-47.37
-50.91
-53.07
-54.05
-54.65
-55.99
-59.20
-64.92
-72.98
-82.14
-90.17
-94.27
-91.82
-81.23
-62.60
-38.06
-11.30
13.42
32.59
44.67
50.44
52.38
53.35
55.09
57.61
59.67
59.82
57.63
54.00
50.63
48.96
49.37
51.06
52.70
53.32
52.72
51.34
49.69
47.87
45.45
41.87
36.83
30.50
23.54
16.67
10.47
5.13
0.42
-4.04
-8.61
-13.38
-18.16
-22.52
-26.12
-28.89
-31.14
-33.40
-36.21
-39.81
-44.04
-48.45
-52.53
-56.01
-58.91
-61.66
-64.92
-69.48
-75.98
-84.60
-94.58
-103.98
-109.84
-108.99
-99.11
-79.81
-53.01
-22.43
7.56
33.34
52.93
66.01
73.44
76.38
75.71
72.09
66.09
58.58
50.69
43.66
38.42
35.42
34.64
35.72
38.10
41.04
43.66
44.95
44.05
40.51
34.55
26.97
18.94
11.47
5.17
0.05
-4.33
-8.58
-13.33
-18.94
-25.40
-32.24
-38.70
-43.97
-47.54
-49.54
-50.78
-52.56
-56.29
-63.00
-72.91
-84.97
-96.80
-104.85
-105.35
-95.45
-74.57
-44.90
-10.99
21.63
48.32
66.62
76.60
80.19
79.93
77.91
75.26
72.30
68.96
65.22
61.27
57.51
54.34
52.07
50.67
49.84
49.12
47.97
46.02
43.10
39.24
34.59
29.31
23.54
17.37
10.90
4.15
-2.88
-10.22
-17.87
-25.61
-33.03
-39.54
-44.61
-48.03
-50.17
-51.98
-54.78
-59.99
-68.53
-80.36
-93.97
-106.31
-113.43
-111.55
-98.51
-74.84
-43.90
-10.85
19.02
42.05
57.10
65.33
69.17
70.94
72.02
72.64
72.42
70.98
68.40
65.16
61.86
58.98
56.58
54.49
52.42
50.27
48.20
46.52
45.46
44.89
44.21
42.49
38.77
32.51
23.90
13.95
4.20
-3.81
-9.19
-12.09
-13.61
-15.34
-18.61
-23.94
-30.88
-38.30
-44.99
-50.18
-53.84
-56.64
-59.65
-64.06
-70.90
-80.64
-92.78
-105.50
-115.68
-119.50
-113.71
-96.94
-70.54
-38.33
-5.42
23.53
45.70
60.64
69.77
75.27
79.01
81.87
83.80
84.35
83.25
80.68
77.31
74.01
71.44
69.89
69.24
69.13
69.24
69.32
69.24
68.88
67.97
66.11
62.92
58.17
51.91
44.50
36.56
28.81
21.95
16.50
12.60
10.00
8.04
5.89
2.84
-1.47
-6.82
-12.58
-17.93
-22.25
-25.44
-27.96
-30.70
-34.57
-40.12
-47.30
-55.44
-63.46
-70.28
-75.22
-78.23
-80.00
-81.71
-84.77
-90.38
-99.20
-110.99
-124.26
-136.23
-143.22
-141.56
-128.88
-105.19
-73.23
-37.82
-4.34
23.03
42.39
54.22
60.57
63.74
65.34
66.00
65.69
64.22
61.79
58.92
56.30
54.44
53.47
53.20
53.31
53.59
54.01
54.71
55.67
56.67
57.11
56.24
53.44
48.43
41.50
33.41
25.25
18.09
12.78
9.68
8.51
8.51
8.59
7.73
5.31
1.33
-3.61
-8.59
-12.70
-15.49
-17.12
-18.40
-20.37
-23.89
-29.21
-35.79
-42.60
-48.53
-52.94
-55.90
-58.21
-60.99
-65.40
-72.30
-81.98
-93.89
-106.35
-116.48
-120.68
-115.63
-99.55
-73.20
-39.95
-4.81
27.13
52.26
69.33
79.24
84.12
86.15
86.75
86.41
85.04
82.52
79.05
75.20
71.56
68.62
66.47
64.93
63.72
62.68
61.74
60.89
59.96
58.56
56.10
52.00
45.95
38.17
29.37
20.64
13.14
7.65
4.29
2.45
1.06
-0.95
-4.16
-8.46
-13.15
-17.35
-20.44
-22.37
-23.77
-25.55
-28.56
-33.12
-38.84
-44.84
-50.10
-53.94
-56.40
-58.15
-60.36
-64.35
-71.15
-81.01
-92.97
-104.64
-112.44
-112.50
-102.04
-80.57
-50.52
-16.66
15.39
41.05
58.09
66.92
69.78
69.46
68.04
66.48
64.84
62.85
60.45
57.88
55.61
54.00
53.11
52.74
52.61
52.51
52.39
52.32
52.26
51.94
50.78
48.09
43.30
36.32
27.74
18.74
10.70
4.78
1.39
0.12
-0.12
-0.57
-2.11
-4.96
-8.69
-12.51
-15.66
-17.81
-19.16
-20.40
-22.38
-25.72
-30.51
-36.19
-41.83
-46.50
-49.72
-51.71
-53.38
-56.06
-61.04
-69.22
-80.61
-93.97
-106.75
-115.37
-116.07
-106.24
-85.48
-56.07
-22.54
9.85
36.65
55.54
66.63
71.82
73.58
73.89
73.66
72.82
70.96
67.88
63.90
59.69
56.04
53.42
51.90
51.28
51.27
51.67
52.35
53.07
53.37
52.58
50.01
45.27
38.37
29.85
20.60
11.66
3.90
-2.18
-6.63
-10.03
-13.22
-16.97
-21.59
-26.71
-31.55
-35.30
-37.59
-38.75
-39.75
-41.71
-45.42
-50.91
-57.47
-63.87
-68.98
-72.16
-73.64
-74.40
-75.88
-79.52
-86.23
-95.92
-107.16
-117.18
-122.31
-119.02
-105.11
-80.76
-48.75
-13.79
18.99
45.62
64.32
75.58
81.31
83.69
84.19
83.32
80.95
76.93
71.47
65.30
59.43
54.73
51.73
50.50
50.77
52.08
53.83
55.43
56.27
55.80
53.67
49.69
43.95
36.75
28.56
19.94
11.49
3.72
-3.00
-8.54
-13.01
-16.63
-19.67
-22.41
-25.19
-28.34
-32.19
-36.91
-42.35
-48.03
-53.32
-57.66
-60.88
-63.33
-65.87
-69.67
-75.84
-85.01
-96.86
-109.71
-120.55
-125.60
-121.38
-106.05
-80.30
-47.45
-12.50
19.41
44.50
61.32
70.63
74.70
76.08
76.70
77.43
78.21
78.45
77.61
75.47
72.24
68.45
64.71
61.49
59.09
57.61
56.97
56.94
57.12
56.91
55.56
52.39
47.06
39.75
31.20
22.46
14.57
8.16
3.28
-0.57
-4.13
-8.05
-12.62
-17.70
-22.84
-27.51
-31.43
-34.67
-37.63
-40.88
-44.86
-49.62
-54.81
-59.81
-64.03
-67.28
-69.91
-72.76
-76.98
-83.61
-93.16
-104.99
-117.02
-125.86
-127.65
-119.31
-99.86
-71.16
-37.45
-4.05
24.44
45.45
58.88
66.43
70.44
72.79
74.46
75.54
75.76
74.93
73.20
70.94
68.63
66.63
65.07
63.89
62.97
62.23
61.69
61.40
61.26
60.88
59.57
56.53
51.22
43.70
34.72
25.61
17.78
12.16
8.87
7.16
5.79
3.47
-0.54
-6.24
-12.99
-19.72
-25.40
-29.39
-31.72
-33.09
-34.55
-37.22
-41.75
-48.08
-55.48
-62.82
-69.09
-73.69
-76.69
-78.82
-81.28
-85.47
-92.61
-103.18
-116.29
-129.43
-138.71
-139.96
-130.15
-108.77
-78.24
-43.29
-9.37
19.06
39.71
52.70
59.84
63.51
65.69
67.45
68.99
70.04
70.32
69.79
68.68
67.32
65.97
64.70
63.47
62.29
61.33
60.88
61.18
62.12
63.13
63.30
61.66
57.64
51.33
43.50
35.34
28.03
22.33
18.37
15.64
13.22
10.17
5.88
0.32
-5.96
-12.04
-17.02
-20.49
-22.75
-24.70
-27.44
-31.75
-37.72
-44.69
-51.57
-57.32
-61.40
-63.96
-65.89
-68.49
-73.17
-81.01
-92.37
-106.43
-120.89
-132.21
-136.36
-130.04
-112.02
-83.88
-49.76
-15.08
15.12
37.74
52.21
60.10
63.97
66.16
68.00
69.78
71.19
71.89
71.83
71.26
70.51
69.78
69.12
68.44
67.76
67.31
67.40
68.29
69.86
71.55
72.35
71.19
67.26
60.45
51.43
41.55
32.38
25.15
20.25
17.16
14.63
11.33
6.41
-0.16
-7.59
-14.78
-20.78
-25.35
-28.99
-32.70
-37.43
-43.61
-51.02
-58.88
-66.30
-72.65
-77.88
-82.46
-87.34
-93.63
-102.37
-114.07
-128.23
-142.99
-155.17
-160.83
-156.64
-141.17
-115.65
-83.85
-50.78
-21.06
2.47
19.31
30.79
38.96
45.68
51.97
58.03
63.64
68.47
72.37
75.31
77.38
78.69
79.48
80.11
80.99
82.56
85.01
88.22
91.58
94.15
94.90
93.08
88.44
81.40
72.84
63.82
55.10
47.01
39.42
32.02
24.57
17.15
10.08
3.69
-1.94
-7.13
-12.48
-18.65
-26.01
-34.39
-43.14
-51.35
-58.25
-63.57
-67.69
-71.53
-76.28
-83.01
-92.37
-104.25
-117.45
-129.54
-137.08
-136.44
-125.06
-102.69
-71.88
-37.44
-4.87
21.58
40.18
51.83
59.08
64.60
70.07
75.81
81.30
85.90
89.42
92.14
94.49
96.68
98.58
99.85
100.20
99.68
98.60
97.35
96.13
94.75
92.60
88.99
83.39
75.71
66.44
56.49
46.90
38.54
31.86
26.79
22.81
19.14
14.99
9.88
3.75
-2.92
-9.34
-14.78
-19.00
-22.48
-26.28
-31.54
-38.86
-47.92
-57.58
-66.36
-73.22
-77.99
-81.46
-85.08
-90.40
-98.59
-110.00
-123.79
-137.76
-148.46
-151.85
-144.63
-125.53
-96.22
-60.91
-25.16
6.06
29.75
45.53
55.02
60.69
64.72
68.41
72.11
75.60
78.53
80.71
82.10
82.77
82.74
81.99
80.45
78.17
75.42
72.70
70.53
69.24
68.64
68.11
66.69
63.52
58.16
50.82
42.26
33.60
25.84
19.52
14.58
10.42
6.17
1.21
-4.61
-10.88
-16.86
-21.91
-25.82
-28.98
-32.24
-36.53
-42.41
-49.79
-57.94
-65.77
-72.25
-76.97
-80.29
-83.28
-87.36
-93.90
-103.73
-116.78
-131.71
-145.75
-155.06
-155.58
-144.51
-121.48
-89.12
-52.43
-17.11
12.38
34.02
48.36
57.51
63.80
68.75
72.86
75.97
77.81
78.36
77.84
76.61
75.03
73.43
72.19
71.59
71.80
72.73
74.00
75.11
75.52
74.85
72.93
69.70
65.09
58.99
51.32
42.19
32.06
21.76
12.22
4.27
-1.77
-6.19
-9.79
-13.59
-18.40
-24.53
-31.74
-39.36
-46.52
-52.56
-57.19
-60.67
-63.80
-67.72
-73.64
-82.50
-94.49
-108.62
-122.47
-132.30
-133.99
-124.38
-102.63
-70.96
-34.18
1.78
31.87
53.37
66.33
72.85
75.76
77.38
78.97
80.73
82.37
83.48
83.75
83.02
81.23
78.44
74.87
70.99
67.39
64.64
63.10
62.75
63.13
63.46
62.75
60.12
55.08
47.74
38.87
29.60
20.99
13.66
7.53
2.02
-3.57
-9.56
-15.78
-21.61
-26.46
-30.17
-33.16
-36.30
-40.45
-46.07
-52.91
-60.14
-66.72
-71.82
-75.29
-77.64
-79.99
-83.66
-89.79
-98.98
-110.84
-123.58
-133.98
-137.94
-131.67
-113.30
-83.92
-47.67
-10.47
21.94
45.91
60.71
68.10
71.00
72.12
73.05
74.20
75.18
75.49
74.80
73.16
70.81
68.07
65.19
62.31
59.51
56.95
54.91
53.65
53.28
53.45
53.45
52.31
49.20
43.77
36.32
27.69
18.96
11.13
4.86
0.39
-2.55
-4.53
-6.37
-8.85
-12.47
-17.31
-22.95
-28.61
-33.50
-37.19
-39.89
-42.38
-45.71
-50.68
-57.40
-65.17
-72.78
-79.02
-83.25
-85.65
-87.15
-89.10
-92.83
-99.26
-108.63
-120.10
-131.60
-139.87
-141.16
-132.33
-112.15
-82.21
-46.64
-10.93
19.90
42.90
57.72
66.04
70.35
72.72
74.09
74.50
73.68
71.58
68.59
65.34
62.37
59.98
58.19
57.00
56.47
56.79
58.05
60.08
62.29
63.75
63.38
60.34
54.29
45.62
35.43
25.17
16.26
9.56
5.06
1.99
-0.84
-4.51
-9.42
-15.22
-20.99
-25.68
-28.71
-30.29
-31.36
-33.19
-36.78
-42.41
-49.47
-56.78
-63.14
-67.88
-71.14
-73.80
-77.12
-82.33
-90.24
-100.81
-112.80
-123.61
-129.59
-126.99
-113.32
-88.52
-55.38
-18.87
15.51
43.43
62.91
74.40
79.97
82.09
82.73
82.84
82.58
81.73
80.07
77.60
74.60
71.43
68.40
65.64
63.19
61.04
59.30
58.12
57.58
57.43
57.01
55.38
51.62
45.29
36.68
26.78
17.02
8.77
2.88
-0.59
-2.36
-3.64
-5.59
-8.86
-13.30
-18.12
-22.31
-25.26
-27.13
-28.83
-31.52
-36.08
-42.60
-50.34
-58.01
-64.35
-68.64
-70.99
-72.34
-74.10
-77.77
-84.53
-94.78
-107.73
-121.14
-131.43
-134.42
-126.66
-106.80
-76.48
-40.19
-3.83
27.11
49.34
62.49
68.54
70.52
71.11
71.81
72.96
74.19
75.09
75.37
74.99
73.90
72.06
69.50
66.41
63.23
60.60
59.11
59.14
60.58
62.79
64.64
64.86
62.45
57.10
49.26
40.09
31.00
23.15
17.18
13.13
10.49
8.43
6.07
2.71
-1.98
-7.80
-14.07
-19.93
-24.74
-28.40
-31.51
-34.98
-39.60
-45.62
-52.60
-59.64
-65.82
-70.60
-74.04
-76.79
-79.85
-84.40
-91.44
-101.52
-114.18
-127.58
-138.46
-142.72
-136.70
-118.69
-89.94
-54.52
-18.14
13.77
37.77
53.18
61.60
65.74
68.07
70.05
72.07
73.84
75.00
75.37
75.01
74.11
72.84
71.35
69.73
68.16
66.90
66.18
66.12
66.55
67.01
66.80
65.28
62.06
57.19
51.15
44.61
38.26
32.54
27.67
23.63
20.31
17.53
15.05
12.48
9.39
5.41
0.46
-5.12
-10.67
-15.49
-19.21
-22.02
-24.68
-28.11
-33.02
-39.55
-47.17
-54.96
-61.89
-67.32
-71.16
-73.99
-76.84
-80.94
-87.41
-96.91
-109.30
-123.18
-135.74
-143.12
-141.31
-127.69
-102.32
-68.38
-31.42
2.50
28.85
45.96
54.99
58.88
60.63
62.25
64.37
66.74
68.86
70.44
71.55
72.28
72.70
72.74
72.39
71.83
71.48
71.83
73.21
75.52
78.17
80.17
80.53
78.53
73.99
67.28
59.14
50.39
41.77
33.83
27.00
21.51
17.33
14.08
11.06
7.46
2.73
-3.19
-9.79
-16.19
-21.59
-25.66
-28.70
-31.47
-35.02
-40.14
-47.10
-55.53
-64.50
-72.88
-79.68
-84.50
-87.63
-90.03
-92.99
-97.88
-105.68
-116.62
-129.70
-142.45
-151.21
-152.00
-141.92
-120.51
-90.27
-56.04
-23.34
3.49
22.57
34.56
41.63
46.23
50.06
53.74
57.25
60.36
62.94
65.04
66.66
67.76
68.21
67.99
67.35
66.77
66.83
67.94
70.12
72.89
75.31
76.24
74.80
70.64
64.09
55.99
47.34
38.83
30.67
22.70
14.67
6.61
-1.06
-7.61
-12.41
-15.31
-16.81
-17.98
-20.05
-23.89
-29.68
-36.88
-44.46
-51.42
-57.27
-62.24
-67.14
-73.03
-80.91
-91.43
-104.58
-119.35
-133.51
-143.64
-145.92
-137.34
-117.10
-87.31
-52.60
-18.57
10.14
31.28
45.27
54.26
60.74
66.38
71.71
76.52
80.44
83.33
85.25
86.20
86.06
84.76
82.45
79.80
77.81
77.34
78.72
81.49
84.55
86.57
86.41
83.46
77.87
70.34
61.94
53.73
46.36
39.94
34.12
28.26
21.98
15.29
8.54
2.16
-3.80
-9.68
-16.15
-23.72
-32.47
-41.87
-51.08
-59.26
-65.98
-71.37
-76.23
-81.71
-89.09
-99.40
-112.97
-128.90
-144.72
-156.63
-160.38
-152.78
-133.08
-103.68
-69.46
-36.14
-8.29
12.01
25.33
33.88
40.16
45.92
51.84
57.91
63.85
69.43
74.52
78.89
82.23
84.24
84.86
84.33
83.21
82.20
81.90
82.63
84.25
86.12
87.24
86.60
83.52
78.00
70.73
62.84
55.50
49.45
44.87
41.39
38.32
34.99
30.94
26.04
20.56
14.98
9.90
5.67
2.29
-0.73
-4.16
-8.71
-14.68
-21.75
-29.06
-35.63
-40.77
-44.42
-47.21
-50.18
-54.26
-59.91
-66.86
-74.14
-80.64
-85.48
-88.55
-90.59
-92.94
-97.06
-104.15
-114.63
-127.99
-142.55
-155.35
-162.57
-160.45
-146.71
-121.74
-88.94
-53.74
-21.81
2.92
19.39
29.16
35.10
39.94
45.31
51.58
58.38
65.17
71.50
77.00
81.34
84.20
85.48
85.42
84.58
83.68
83.37
83.98
85.46
87.32
88.70
88.71
86.73
82.55
76.60
69.65
62.55
55.90
49.96
44.61
39.64
34.81
30.05
25.44
21.11
17.13
13.42
9.73
5.75
1.26
-3.72
-8.94
-14.01
-18.75
-23.32
-28.26
-34.20
-41.52
-50.08
-59.18
-67.86
-75.31
-81.18
-85.79
-89.96
-94.87
-101.74
-111.56
-124.70
-140.45
-156.60
-169.51
-174.91
-169.33
-151.57
-123.55
-89.83
-56.11
-27.21
-5.58
8.99
18.56
25.71
32.34
39.28
46.47
53.48
59.88
65.40
69.87
73.18
75.28
76.25
76.37
76.12
76.10
76.89
78.81
81.77
85.12
87.88
88.99
87.72
83.96
78.27
71.64
65.16
59.66
55.50
52.49
50.02
47.27
43.49
38.32
31.97
25.16
18.85
13.74
9.91
6.66
2.81
-2.76
-10.64
-20.55
-31.50
-42.16
-51.42
-58.83
-64.75
-70.21
-76.58
-85.12
-96.56
-110.69
-126.09
-140.07
-149.20
-150.18
-141.05
-122.05
-95.79
-66.55
-38.80
-15.82
1.17
12.95
21.44
28.65
35.89
43.56
51.37
58.82
65.51
71.14
75.61
78.84
80.84
81.71
81.75
81.40
81.17
81.41
82.26
83.51
84.71
85.30
84.81
83.00
79.91
75.84
71.22
66.51
62.07
58.04
54.36
50.86
47.33
43.60
39.59
35.23
30.51
25.51
20.32
15.08
9.81
4.27
-2.00
-9.56
-18.69
-29.16
-40.11
-50.37
-58.93
-65.35
-70.02
-73.95
-78.45
-84.76
-93.80
-106.02
-121.12
-137.75
-153.20
-163.79
-165.80
-156.82
-136.99
-109.21
-78.20
-48.87
-24.65
-6.62
6.18
15.73
23.95
32.00
40.26
48.71
57.11
65.19
72.56
78.67
82.99
85.20
85.41
84.22
82.57
81.45
81.56
83.04
85.43
87.79
89.09
88.53
85.90
81.53
76.13
70.47
65.12
60.31
55.90
51.62
47.14
42.23
36.92
31.51
26.41
22.00
18.40
15.38
12.46
9.09
5.04
0.37
-4.56
-9.46
-14.32
-19.54
-25.67
-33.14
-41.88
-51.30
-60.42
-68.31
-74.44
-78.90
-82.35
-85.86
-90.67
-97.97
-108.61
-122.55
-138.33
-152.85
-161.81
-161.08
-148.30
-124.13
-92.27
-58.23
-27.37
-3.17
13.56
24.19
31.13
36.64
42.22
48.51
55.54
63.03
70.45
77.08
82.14
84.92
85.14
83.08
79.63
76.03
73.57
73.15
74.97
78.43
82.33
85.23
85.95
83.90
79.26
72.87
65.93
59.52
54.28
50.18
46.64
42.91
38.44
33.15
27.43
21.74
16.40
11.38
6.40
1.19
-4.35
-10.06
-15.61
-20.72
-25.29
-29.50
-33.78
-38.83
-45.22
-53.15
-62.16
-71.22
-79.04
-84.61
-87.73
-89.14
-90.27
-92.78
-97.97
-106.47
-117.84
-130.45
-141.49
-147.29
-144.34
-130.48
-106.06
-74.12
-39.72
-8.27
16.32
32.55
41.44
45.56
47.66
49.67
52.36
55.50
58.48
60.73
61.98
62.23
61.68
60.60
59.25
57.99
57.25
57.48
58.97
61.64
64.89
67.67
68.72
67.02
62.20
54.69
45.64
36.53
28.64
22.66
18.52
15.36
12.05
7.60
1.66
-5.34
-12.41
-18.50
-23.04
-26.28
-29.13
-32.74
-37.88
-44.61
-52.24
-59.72
-66.10
-70.92
-74.38
-77.25
-80.56
-85.47
-92.90
-103.09
-115.17
-126.80
-134.40
-134.07
-123.00
-100.80
-70.05
-35.65
-3.20
22.89
40.72
50.99
56.12
58.85
61.18
63.90
66.94
69.82
72.15
73.68
74.25
73.74
72.11
69.54
66.48
63.61
61.67
61.09
61.92
63.69
65.48
66.14
64.64
60.37
53.46
44.71
35.46
27.05
20.36
15.54
12.00
8.78
4.98
0.22
-5.32
-10.97
-15.96
-19.83
-22.71
-25.38
-28.99
-34.48
-42.20
-51.55
-61.24
-69.80
-76.25
-80.48
-83.27
-85.90
-89.77
-96.01
-105.28
-117.35
-130.73
-142.40
-148.21
-144.08
-127.64
-99.61
-64.01
-26.94
5.57
29.61
44.36
51.65
54.55
55.91
57.45
59.84
63.10
67.04
71.41
75.80
79.53
81.84
82.21
80.66
77.84
74.86
72.83
72.42
73.54
75.38
76.73
76.42
73.78
68.83
62.16
54.56
46.80
39.34
32.39
25.99
20.25
15.30
11.26
8.07
5.38
2.66
-0.73
-5.25
-11.01
-17.70
-24.75
-31.53
-37.68
-43.20
-48.39
-53.60
-58.93
-64.16
-68.85
-72.60
-75.33
-77.40
-79.43
-82.16
-86.35
-92.59
-101.41
-112.97
-126.56
-140.08
-150.00
-152.06
-142.78
-121.05
-89.05
-51.86
-15.83
13.65
33.84
45.11
50.09
52.14
53.91
56.65
60.39
64.52
68.43
71.71
74.23
75.88
76.65
76.53
75.71
74.55
73.49
72.96
73.18
74.04
75.17
75.92
75.55
73.43
69.25
63.18
55.84
48.14
40.92
34.74
29.66
25.34
21.20
16.61
11.11
4.62
-2.58
-9.86
-16.41
-21.66
-25.48
-28.40
-31.42
-35.67
-41.93
-50.28
-60.07
-70.09
-79.05
-85.95
-90.42
-92.89
-94.48
-96.80
-101.48
-109.73
-121.65
-135.85
-149.30
-157.86
-157.33
-145.02
-120.83
-87.72
-50.96
-16.43
11.22
29.94
40.46
45.39
47.88
50.32
53.83
58.40
63.45
68.33
72.55
75.78
77.79
78.44
77.72
75.93
73.65
71.61
70.47
70.59
71.84
73.62
74.97
74.88
72.55
67.71
60.72
52.53
44.34
37.27
31.99
28.40
25.81
23.14
19.37
13.94
6.98
-0.77
-8.25
-14.57
-19.37
-23.02
-26.44
-30.74
-36.61
-44.07
-52.36
-60.28
-66.71
-71.12
-73.80
-75.82
-78.65
-83.70
-91.93
-103.52
-117.48
-131.50
-142.06
-145.13
-137.43
-117.88
-88.33
-53.38
-18.93
9.86
30.16
42.03
47.81
50.64
53.09
56.48
60.90
65.79
70.46
74.40
77.29
78.98
79.46
78.87
77.63
76.32
75.55
75.76
77.05
79.10
81.24
82.62
82.40
79.98
75.16
68.29
60.20
52.04
44.92
39.55
35.93
33.34
30.61
26.61
20.72
13.16
4.89
-2.87
-9.11
-13.57
-16.84
-20.14
-24.76
-31.48
-40.20
-50.02
-59.59
-67.71
-73.83
-78.22
-81.87
-86.11
-92.33
-101.59
-114.25
-129.51
-145.04
-157.07
-161.30
-154.32
-135.13
-105.92
-71.59
-38.08
-10.35
9.20
20.99
27.42
31.46
35.39
40.31
46.35
53.17
60.34
67.49
74.22
79.99
84.26
86.65
87.20
86.46
85.32
84.73
85.24
86.79
88.68
89.96
89.76
87.68
83.85
78.80
73.19
67.57
62.29
57.39
52.73
48.04
43.11
37.92
32.74
28.01
24.11
21.03
18.25
14.96
10.39
4.27
-3.03
-10.65
-17.76
-23.88
-29.10
-34.02
-39.31
-45.43
-52.35
-59.61
-66.54
-72.59
-77.64
-82.03
-86.55
-92.15
-99.80
-110.15
-123.17
-137.74
-151.34
-160.26
-160.54
-149.50
-127.08
-96.29
-62.44
-31.23
-6.73
9.74
19.48
25.26
29.77
34.65
40.34
46.55
52.89
59.13
65.11
70.61
75.23
78.47
80.08
80.19
79.39
78.49
78.22
78.95
80.48
82.16
83.09
82.56
80.32
76.65
72.21
67.73
63.59
59.74
55.73
51.02
45.29
38.74
31.92
25.59
20.30
16.18
12.86
9.63
5.74
0.68
-5.59
-12.69
-19.97
-26.83
-33.07
-38.89
-44.86
-51.54
-59.21
-67.58
-75.96
-83.52
-89.64
-94.24
-97.79
-101.18
-105.49
-111.76
-120.69
-132.13
-144.62
-155.19
-159.97
-155.40
-139.78
-114.32
-83.00
-51.21
-23.76
-3.27
10.37
19.23
25.91
32.30
39.06
45.91
52.35
58.11
63.28
67.98
72.15
75.53
77.82
78.91
79.12
79.06
79.45
80.80
83.19
86.20
89.00
90.63
90.29
87.68
83.04
77.09
70.77
64.90
59.95
55.91
52.37
48.69
44.23
38.67
32.11
25.14
18.57
13.02
8.55
4.49
-0.29
-6.84
-15.65
-26.32
-37.75
-48.57
-57.75
-64.91
-70.44
-75.34
-80.87
-88.30
-98.59
-111.99
-127.56
-142.90
-154.27
-157.57
-149.72
-130.09
-101.12
-67.71
-35.57
-9.22
9.35
20.84
27.67
32.51
37.20
42.48
48.24
54.22
60.23
66.15
71.67
76.26
79.36
80.62
80.12
78.49
76.63
75.40
75.32
76.37
78.01
79.29
79.18
76.98
72.57
66.42
59.41
52.50
46.40
41.43
37.48
34.19
31.04
27.54
23.30
18.16
12.28
6.16
0.35
-4.72
-9.07
-13.23
-18.08
-24.41
-32.47
-41.78
-51.28
-59.77
-66.48
-71.43
-75.44
-79.85
-85.99
-94.86
-106.83
-121.37
-136.87
-150.59
-158.92
-158.30
-146.54
-123.94
-93.61
-60.64
-30.39
-6.65
9.39
19.05
24.99
29.82
35.15
41.39
48.16
54.92
61.30
67.07
71.96
75.61
77.67
78.05
77.15
75.78
74.86
75.08
76.52
78.66
80.58
81.34
80.35
77.53
73.32
68.50
63.86
59.94
56.85
54.23
51.46
48.03
43.75
38.85
33.83
29.16
24.98
21.11
17.10
12.49
7.09
1.05
-5.16
-11.05
-16.33
-21.18
-26.13
-31.86
-38.84
-46.98
-55.60
-63.74
-70.57
-75.83
-79.96
-83.93
-88.96
-96.17
-106.35
-119.61
-134.88
-149.65
-160.12
-162.22
-153.07
-132.40
-103.07
-70.20
-39.35
-14.57
2.70
13.50
20.25
25.38
30.50
36.24
42.59
49.37
56.34
63.12
69.12
73.64
76.06
76.27
74.71
72.38
70.44
69.78
70.67
72.74
75.08
76.75
77.11
75.91
73.32
69.65
65.19
60.20
55.03
50.08
45.77
42.33
39.57
37.02
34.05
30.18
25.25
19.41
13.07
6.72
0.83
-4.36
-8.93
-13.36
-18.40
-24.78
-32.80
-42.10
-51.74
-60.60
-67.85
-73.28
-77.37
-81.07
-85.54
-91.88
-100.99
-113.12
-127.37
-141.35
-151.37
-153.39
-144.58
-124.57
-95.96
-63.60
-32.82
-7.66
10.25
21.68
28.77
33.88
38.62
43.68
49.11
54.72
60.34
65.74
70.54
74.22
76.30
76.55
75.24
73.09
71.04
69.93
70.16
71.56
73.43
74.84
74.89
73.10
69.47
64.50
58.89
53.29
48.10
43.42
39.17
35.32
31.95
29.16
26.94
24.98
22.72
19.61
15.35
10.08
4.35
-1.20
-6.22
-10.79
-15.48
-21.10
-28.20
-36.86
-46.50
-56.12
-64.71
-71.70
-77.19
-81.88
-86.85
-93.13
-101.58
-112.62
-126.00
-140.39
-153.14
-160.65
-159.33
-147.09
-124.49
-94.95
-63.63
-35.57
-13.92
0.81
10.26
16.94
22.90
29.13
35.65
42.07
48.00
53.20
57.52
60.81
62.94
63.91
63.93
63.43
62.93
62.90
63.60
64.98
66.70
68.19
68.77
67.95
65.60
62.07
58.03
54.30
51.49
49.74
48.68
47.54
45.51
42.06
37.12
31.21
25.14
19.68
15.16
11.34
7.40
2.25
-4.97
-14.51
-25.80
-37.62
-48.45
-57.12
-63.19
-67.18
-70.38
-74.41
-80.85
-90.65
-103.82
-119.04
-133.54
-143.49
-145.05
-135.69
-115.34
-86.81
-55.02
-25.33
-1.74
14.23
23.54
28.74
32.56
36.87
42.34
48.64
54.95
60.50
64.77
67.60
69.13
69.64
69.49
69.05
68.66
68.64
69.22
70.47
72.16
73.73
74.45
73.66
71.07
66.80
61.21
54.72
47.63
40.15
32.47
24.94
18.00
12.02
7.08
2.82
-1.47
-6.62
-13.27
-21.61
-31.27
-41.49
-51.31
-59.91
-66.99
-72.90
-78.62
-85.48
-94.73
-106.88
-121.20
-135.35
-145.71
-148.25
-139.89
-119.94
-90.66
-56.82
-24.11
2.67
21.19
31.81
36.92
39.57
42.18
46.02
51.21
57.26
63.52
69.46
74.66
78.74
81.41
82.44
81.95
80.40
78.57
77.32
77.27
78.53
80.54
82.26
82.48
80.32
75.56
68.70
60.77
52.96
46.16
40.72
36.40
32.51
28.20
22.81
16.12
8.49
0.68
-6.37
-12.08
-16.47
-20.29
-24.67
-30.62
-38.54
-47.92
-57.59
-66.28
-73.09
-77.93
-81.46
-84.81
-89.26
-95.94
-105.62
-118.33
-132.86
-146.45
-155.11
-154.63
-142.28
-118.18
-85.72
-50.57
-18.70
5.66
21.26
29.59
33.73
36.74
40.61
45.96
52.44
59.35
66.05
72.02
76.81
80.02
81.33
80.69
78.60
75.99
73.99
73.48
74.74
77.23
79.82
81.19
80.35
77.04
71.77
65.57
59.63
54.76
51.13
48.27
45.43
41.87
37.33
32.00
26.37
20.90
15.72
10.59
5.13
-0.91
-7.49
-14.21
-20.56
-26.20
-31.13
-35.75
-40.68
-46.47
-53.33
-61.00
-68.72
-75.55
-80.71
-83.99
-85.86
-87.41
-90.00
-94.93
-103.06
-114.40
-127.69
-140.25
-148.20
-147.50
-135.41
-111.80
-79.66
-44.31
-11.66
13.85
30.48
39.29
43.03
44.71
46.51
49.39
53.31
57.85
62.45
66.60
69.91
72.04
72.90
72.60
71.59
70.41
69.69
69.83
70.95
72.71
74.43
75.19
74.19
70.95
65.50
58.39
50.41
42.40
34.99
28.55
23.16
18.70
14.92
11.47
7.90
3.81
-1.07
-6.77
-13.04
-19.39
-25.23
-30.13
-33.99
-37.16
-40.31
-44.23
-49.40
-55.75
-62.63
-69.08
-74.22
-77.70
-79.84
-81.56
-84.06
-88.55
-95.93
-106.38
-118.99
-131.41
-139.99
-140.62
-130.20
-107.97
-76.25
-39.91
-4.81
24.10
44.30
55.93
61.20
63.01
63.74
64.70
66.07
67.53
68.67
69.31
69.42
68.99
67.92
66.05
63.47
60.59
58.18
56.93
57.11
58.18
59.04
58.41
55.32
49.64
41.91
33.22
24.72
17.30
11.35
6.77
3.04
-0.55
-4.48
-8.88
-13.45
-17.70
-21.32
-24.43
-27.67
-31.83
-37.56
-44.87
-53.10
-61.12
-67.73
-72.18
-74.54
-75.77
-77.44
-81.31
-88.67
-99.79
-113.42
-126.64
-135.34
-135.22
-123.22
-98.86
-64.84
-26.49
9.87
38.95
58.11
67.84
70.94
70.93
70.64
71.37
73.15
75.36
77.37
78.89
79.85
80.18
79.76
78.43
76.20
73.41
70.69
68.70
67.94
68.43
69.53
70.10
68.81
64.62
57.28
47.50
36.78
26.84
19.01
13.68
10.29
7.66
4.52
0.02
-5.91
-12.70
-19.39
-25.12
-29.54
-32.96
-36.28
-40.47
-46.10
-53.00
-60.36
-67.08
-72.31
-75.91
-78.42
-80.88
-84.56
-90.55
-99.54
-111.43
-124.87
-137.04
-143.99
-141.70
-127.60
-101.87
-67.82
-31.05
2.50
28.42
45.12
53.72
57.07
58.21
59.29
61.18
63.80
66.63
69.25
71.48
73.27
74.56
75.18
74.91
73.74
71.93
70.06
68.79
68.57
69.36
70.53
71.09
70.02
66.69
61.12
53.97
46.27
39.11
33.18
28.63
25.03
21.59
17.52
12.29
5.88
-1.24
-8.30
-14.56
-19.65
-23.75
-27.60
-32.13
-38.07
-45.54
-54.02
-62.48
-69.81
-75.20
-78.45
-80.03
-81.02
-82.91
-87.27
-95.34
-107.42
-122.37
-137.31
-148.01
-150.06
-140.43
-118.79
-87.91
-52.91
-19.51
7.78
26.88
38.26
44.09
47.06
49.27
51.90
55.26
59.15
63.26
67.22
70.67
73.20
74.45
74.26
72.77
70.52
68.31
66.95
66.92
68.14
69.88
71.03
70.40
67.18
61.26
53.26
44.36
35.83
28.65
23.15
18.99
15.34
11.30
6.28
0.24
-6.27
-12.45
-17.60
-21.53
-24.69
-28.05
-32.62
-39.01
-47.07
-55.92
-64.29
-71.10
-75.90
-79.10
-81.83
-85.55
-91.59
-100.77
-112.98
-126.85
-139.66
-147.75
-147.41
-136.22
-114.11
-83.63
-49.39
-16.47
11.03
31.15
44.10
51.68
56.09
59.13
61.67
63.82
65.37
66.22
66.54
66.68
67.00
67.55
68.16
68.62
68.96
69.48
70.46
71.89
73.22
73.49
71.78
67.69
61.54
54.17
46.68
39.88
34.07
29.08
24.33
19.21
13.29
6.62
-0.34
-6.88
-12.42
-16.89
-20.78
-24.94
-30.20
-36.80
-44.43
-52.33
-59.64
-65.85
-70.99
-75.63
-80.71
-87.40
-96.72
-109.07
-123.64
-138.00
-148.33
-150.37
-140.92
-119.39
-88.35
-52.90
-19.04
8.44
27.39
38.43
44.13
47.50
50.72
54.72
59.36
64.14
68.70
72.96
77.05
80.97
84.52
87.31
89.00
89.60
89.43
89.06
89.03
89.60
90.55
91.33
91.21
89.58
86.20
81.21
75.09
68.51
62.06
56.17
51.06
46.65
42.63
38.55
33.97
28.63
22.63
16.35
10.34
5.02
0.41
-4.01
-9.10
-15.63
-23.96
-33.71
-43.91
-53.36
-61.15
-66.96
-71.18
-74.74
-78.82
-84.63
-93.19
-105.03
-119.79
-135.63
-149.19
-156.10
-152.43
-136.36
-109.25
-75.58
-41.44
-12.31
8.77
21.83
29.19
33.88
38.25
43.31
49.01
54.95
60.76
66.38
71.69
76.33
79.79
81.63
81.78
80.76
79.50
78.93
79.70
81.83
84.75
87.46
88.85
88.03
84.59
78.72
71.10
62.82
55.02
48.58
43.86
40.53
37.71
34.31
29.43
22.83
15.00
7.01
0.01
-5.35
-9.19
-12.41
-16.30
-21.90
-29.59
-38.93
-48.88
-58.28
-66.27
-72.60
-77.64
-82.22
-87.44
-94.35
-103.73
-115.57
-128.69
-140.48
-147.28
-145.42
-132.56
-108.88
-77.49
-43.45
-12.14
12.52
29.17
38.88
44.11
47.40
50.30
53.27
56.12
58.55
60.52
62.23
63.83
65.25
66.28
66.76
66.78
66.71
67.00
67.89
69.22
70.44
70.71
69.22
65.48
59.48
51.78
43.24
34.72
26.74
19.29
11.97
4.34
-3.65
-11.57
-18.57
-23.94
-27.55
-29.97
-32.26
-35.45
-40.03
-45.85
-52.23
-58.28
-63.31
-67.08
-69.83
-72.28
-75.45
-80.48
-88.12
-98.30
-109.50
-118.77
-122.23
-116.32
-99.19
-71.74
-37.65
-2.29
28.98
52.55
67.36
74.75
77.33
77.60
77.14
76.44
75.38
73.70
71.46
68.96
66.57
64.53
62.90
61.60
60.56
59.68
58.83
57.86
56.59
54.80
52.32
48.97
44.59
39.07
32.45
24.89
16.73
8.29
-0.10
-8.13
-15.47
-21.75
-26.71
-30.39
-33.21
-35.93
-39.30
-43.70
-48.91
-54.36
-59.37
-63.61
-67.22
-70.80
-75.11
-80.95
-88.95
-99.34
-111.56
-123.71
-132.53
-134.07
-125.06
-104.36
-73.96
-38.53
-3.93
24.78
44.97
56.81
62.56
65.13
66.84
68.75
70.85
72.68
73.85
74.36
74.46
74.40
74.22
73.74
72.78
71.42
70.06
69.18
69.10
69.60
69.94
69.06
66.15
60.95
53.93
46.06
38.43
31.74
26.08
20.87
15.25
8.49
0.43
-8.37
-16.76
-23.58
-28.19
-30.78
-32.39
-34.46
-38.21
-44.21
-52.12
-60.86
-69.04
-75.49
-79.70
-81.98
-83.47
-85.79
-90.54
-98.72
-110.07
-122.79
-133.50
-138.02
-132.61
-115.40
-87.34
-52.26
-15.74
16.72
41.40
57.26
65.70
69.29
70.52
70.90
70.87
70.26
68.90
66.82
64.28
61.62
59.04
56.68
54.60
52.89
51.66
51.00
50.96
51.34
51.71
51.33
49.39
45.29
38.94
30.95
22.43
14.54
8.04
3.01
-1.09
-5.07
-9.53
-14.60
-19.92
-24.85
-28.78
-31.53
-33.42
-35.33
-38.28
-42.98
-49.37
-56.62
-63.38
-68.47
-71.43
-72.74
-73.64
-75.74
-80.42
-88.49
-99.69
-112.33
-123.20
-128.08
-122.96
-105.52
-76.49
-39.80
-1.44
32.58
58.14
74.02
81.66
83.92
83.69
82.98
82.70
82.89
83.18
83.08
82.18
80.20
77.12
73.07
68.42
63.70
59.55
56.52
54.94
54.63
54.87
54.58
52.62
48.32
41.74
33.59
24.98
16.91
9.97
4.15
-0.93
-5.78
-10.74
-15.85
-20.83
-25.24
-28.75
-31.41
-33.69
-36.39
-40.23
-45.52
-51.90
-58.49
-64.26
-68.50
-71.09
-72.69
-74.43
-77.74
-83.82
-93.17
-104.99
-116.84
-124.85
-124.67
-113.01
-89.16
-55.71
-17.94
17.94
46.83
66.35
77.01
81.30
82.18
81.82
81.19
80.37
79.12
77.38
75.34
73.23
71.14
69.00
66.69
64.27
62.01
60.42
59.90
60.56
61.98
63.27
63.29
61.10
56.29
49.16
40.67
32.04
24.37
18.20
13.43
9.40
5.30
0.48
-5.17
-11.25
-17.00
-21.75
-25.29
-27.99
-30.77
-34.54
-39.82
-46.43
-53.56
-60.10
-65.14
-68.37
-70.21
-71.67
-74.14
-78.91
-86.77
-97.45
-109.23
-118.97
-122.73
-116.99
-100.10
-73.14
-39.88
-5.59
24.64
47.51
62.21
70.01
73.26
74.20
74.15
73.48
71.92
69.20
65.32
60.70
56.01
51.87
48.60
46.19
44.42
43.03
41.89
41.03
40.44
39.87
38.75
36.27
31.65
24.52
15.20
4.72
-5.50
-14.06
-20.13
-23.74
-25.82
-27.73
-30.74
-35.53
-41.93
-49.01
-55.55
-60.50
-63.44
-64.70
-65.34
-66.75
-70.30
-76.90
-86.65
-98.46
-109.98
-117.75
-118.04
-107.95
-86.63
-55.98
-20.27
15.06
45.17
67.22
80.86
87.72
90.19
90.33
89.22
87.12
83.89
79.40
73.83
67.53
60.96
54.60
48.89
44.21
40.90
39.15
38.83
39.46
40.18
39.88
37.48
32.30
24.40
14.58
4.16
-5.51
-13.55
-19.87
-25.11
-30.23
-35.95
-42.35
-48.90
-54.67
-58.94
-61.59
-63.28
-65.29
-69.14
-76.11
-86.61
-99.76
-113.12
-122.96
-125.13
-116.45
-96.05
-66.01
-30.96
3.35
31.99
52.31
64.32
70.13
72.53
73.81
75.12
76.57
77.75
78.21
77.70
76.16
73.63
70.20
66.09
61.75
57.79
54.89
53.45
53.43
54.14
54.44
53.04
49.02
42.17
33.18
23.36
14.09
6.29
0.08
-5.15
-10.37
-16.41
-23.53
-31.44
-39.43
-46.71
-52.83
-57.81
-62.25
-67.20
-73.97
-83.62
-96.31
-110.64
-123.50
-130.57
-127.76
-112.91
-86.96
-53.95
-19.73
10.14
32.25
46.11
53.65
57.75
60.82
63.96
67.02
69.32
70.39
70.31
69.59
68.85
68.47
68.46
68.54
68.43
68.05
67.52
67.09
66.92
66.93
66.64
65.42
62.56
57.61
50.53
41.82
32.40
23.42
15.83
10.08
5.89
2.34
-1.81
-7.54
-15.17
-24.20
-33.49
-41.75
-48.11
-52.47
-55.55
-58.66
-63.23
-70.42
-80.82
-94.18
-109.13
-123.13
-132.62
-133.88
-124.17
-102.95
-72.51
-37.51
-3.57
24.62
44.59
56.53
62.59
65.44
67.12
68.45
69.23
68.92
67.20
64.25
60.59
56.73
53.05
49.78
47.07
45.15
44.23
44.33
45.12
45.91
45.79
43.98
40.06
34.07
26.43
17.73
8.58
-0.51
-9.09
-16.77
-23.23
-28.25
-31.90
-34.50
-36.59
-38.83
-41.72
-45.50
-50.00
-54.78
-59.26
-62.94
-65.63
-67.48
-69.04
-71.13
-74.64
-80.37
-88.65
-98.97
-109.65
-117.81
-119.82
-112.48
-94.20
-65.97
-31.43
4.24
35.94
60.33
76.50
85.72
90.30
92.25
92.63
91.56
88.76
84.23
78.48
72.40
66.81
62.20
58.53
55.56
53.02
50.85
49.20
48.18
47.59
46.73
44.53
39.89
32.21
21.80
9.90
-1.69
-11.32
-18.16
-22.55
-25.78
-29.47
-34.76
-41.79
-49.70
-57.02
-62.41
-65.26
-65.94
-65.70
-66.24
-69.27
-75.94
-86.35
-99.18
-111.53
-119.41
-118.71
-106.69
-83.17
-50.90
-14.98
18.87
46.08
64.55
74.74
78.92
79.77
79.36
78.68
77.91
76.87
75.46
73.69
71.58
69.04
65.87
62.02
57.75
53.74
50.79
49.44
49.60
50.37
50.39
48.32
43.34
35.50
25.66
15.16
5.30
-3.11
-9.98
-15.86
-21.62
-28.01
-35.27
-42.99
-50.33
-56.35
-60.57
-63.20
-65.19
-67.94
-72.93
-81.15
-92.55
-105.63
-117.28
-123.37
-119.88
-104.46
-77.63
-43.02
-6.33
26.52
51.34
66.88
74.58
77.42
78.35
79.10
79.94
80.23
79.27
76.87
73.51
69.94
66.76
64.14
61.90
59.78
57.79
56.21
55.38
55.41
55.91
55.95
54.37
50.19
42.97
33.06
21.53
9.84
-0.55
-8.65
-14.29
-18.14
-21.44
-25.50
-31.19
-38.55
-46.79
-54.56
-60.54
-63.98
-64.97
-64.50
-64.16
-65.62
-70.19
-78.43
-89.69
-101.92
-111.75
-115.11
-108.44
-90.02
-60.96
-25.23
11.45
43.45
67.05
81.29
87.70
89.12
88.19
86.56
84.69
82.43
79.62
76.41
73.17
70.13
67.33
64.52
61.54
58.37
55.27
52.53
50.23
48.11
45.69
42.41
37.89
31.98
24.80
16.61
7.76
-1.38
-10.40
-18.89
-26.42
-32.66
-37.39
-40.64
-42.76
-44.38
-46.25
-48.98
-52.71
-57.08
-61.38
-64.89
-67.19
-68.44
-69.19
-70.30
-72.69
-77.09
-83.83
-92.41
-101.26
-107.59
-108.00
-99.43
-80.54
-52.51
-19.03
14.82
44.19
65.99
79.53
86.09
87.83
86.61
83.31
77.99
70.49
61.04
50.54
40.30
31.57
25.08
20.91
18.62
17.61
17.28
17.30
17.43
17.46
17.05
15.73
13.02
8.53
2.26
-5.32
-13.21
-20.17
-25.15
-27.75
-28.46
-28.58
-29.60
-32.51
-37.36
-43.19
-48.51
-52.02
-53.27
-52.84
-52.11
-52.74
-56.09
-62.81
-72.57
-83.90
-94.16
-99.95
-97.84
-85.50
-62.77
-32.04
2.15
34.50
60.66
78.45
88.09
91.58
91.42
89.48
86.55
82.60
77.35
70.81
63.47
56.09
49.33
43.54
38.79
35.09
32.51
31.15
30.96
31.47
31.75
30.64
27.18
20.95
12.29
2.23
-7.82
-16.48
-22.85
-26.78
-28.95
-30.52
-32.73
-36.28
-41.06
-46.29
-50.96
-54.33
-56.39
-57.81
-59.72
-63.35
-69.58
-78.46
-88.82
-98.12
-102.80
-99.28
-85.30
-61.12
-29.69
4.12
35.18
59.71
76.26
85.53
89.43
89.95
88.43
85.44
81.10
75.56
69.16
62.51
56.17
50.51
45.64
41.53
38.15
35.54
33.82
32.90
32.42
31.63
29.57
25.49
19.09
10.80
1.60
-7.30
-14.96
-21.06
-25.93
-30.34
-35.04
-40.36
-46.00
-51.23
-55.26
-57.73
-58.88
-59.54
-60.87
-64.06
-69.94
-78.60
-88.99
-98.65
-104.01
-101.28
-87.88
-63.67
-31.44
3.79
36.47
62.33
79.56
88.85
92.44
92.77
91.42
88.95
85.20
79.95
73.39
66.15
59.03
52.62
47.20
42.69
38.99
36.08
34.01
32.83
32.30
31.82
30.47
27.33
21.80
13.90
4.34
-5.64
-14.68
-21.75
-26.56
-29.65
-32.15
-35.27
-39.77
-45.56
-51.82
-57.37
-61.27
-63.25
-63.91
-64.41
-66.18
-70.38
-77.45
-86.81
-96.57
-103.79
-105.03
-97.40
-79.70
-53.17
-21.38
10.78
38.66
59.29
72.05
78.29
80.23
79.76
77.72
74.05
68.34
60.57
51.37
41.97
33.64
27.33
23.37
21.56
21.26
21.72
22.10
21.66
19.85
16.38
11.29
4.95
-2.08
-9.13
-15.70
-21.58
-26.84
-31.75
-36.61
-41.51
-46.26
-50.48
-53.82
-56.17
-57.89
-59.63
-62.26
-66.54
-72.75
-80.43
-88.08
-93.21
-92.81
-84.28
-66.51
-40.61
-9.95
20.87
47.46
67.03
79.02
84.73
86.25
85.37
82.97
79.08
73.46
66.16
57.76
49.32
41.88
36.16
32.34
30.20
29.21
28.76
28.27
27.15
24.91
21.28
16.29
10.37
4.15
-1.80
-7.28
-12.51
-17.97
-24.03
-30.70
-37.47
-43.57
-48.33
-51.52
-53.49
-55.00
-57.06
-60.61
-66.42
-74.73
-84.95
-95.27
-102.63
-103.41
-94.55
-74.95
-46.17
-12.28
21.41
50.12
71.05
83.85
90.13
92.30
92.40
91.47
89.64
86.57
82.00
76.00
69.06
61.86
55.04
49.16
44.52
41.25
39.24
38.17
37.48
36.45
34.36
30.61
24.95
17.54
8.97
0.10
-8.19
-15.25
-20.94
-25.64
-30.07
-34.85
-40.24
-45.88
-51.10
-55.20
-57.92
-59.63
-61.28
-64.11
-69.29
-77.45
-88.21
-99.84
-109.22
-112.42
-105.98
-88.26
-60.42
-26.42
8.28
38.49
60.95
75.09
82.51
85.77
87.06
87.49
87.10
85.40
82.06
77.17
71.25
64.94
58.77
52.99
47.70
43.05
39.29
36.69
35.31
34.80
34.25
32.50
28.46
21.67
12.42
1.86
-8.50
-17.26
-23.69
-27.95
-30.99
-34.06
-38.16
-43.59
-49.82
-55.82
-60.58
-63.57
-65.11
-66.23
-68.30
-72.60
-79.80
-89.60
-100.43
-109.57
-113.61
-109.44
-95.31
-71.74
-41.60
-9.30
20.52
44.45
61.14
71.18
76.33
78.37
78.47
76.87
73.37
67.78
60.39
51.97
43.50
35.92
29.91
25.75
23.46
22.84
23.47
24.75
25.90
26.03
24.34
20.40
14.29
6.62
-1.62
-9.49
-16.34
-22.06
-27.06
-31.92
-37.10
-42.60
-47.97
-52.55
-55.91
-58.10
-59.73
-61.85
-65.52
-71.55
-80.00
-89.91
-99.12
-104.52
-102.83
-91.67
-70.59
-41.61
-8.77
23.07
49.74
68.88
80.36
85.68
87.01
86.09
83.83
80.34
75.51
69.43
62.64
55.96
50.13
45.59
42.40
40.37
39.30
39.01
39.31
39.76
39.72
38.37
35.03
29.43
21.92
13.36
4.86
-2.67
-8.87
-14.07
-19.07
-24.71
-31.31
-38.44
-45.16
-50.46
-53.89
-55.84
-57.52
-60.53
-66.28
-75.42
-87.33
-99.87
-109.54
-112.32
-104.89
-86.03
-57.33
-22.98
11.56
41.37
63.49
77.47
84.84
87.93
88.78
88.53
87.50
85.57
82.64
78.85
74.49
69.90
65.27
60.76
56.50
52.76
49.92
48.27
47.68
47.52
46.64
43.86
38.40
30.26
20.29
9.78
-0.01
-8.32
-15.11
-20.89
-26.37
-32.06
-38.04
-43.97
-49.28
-53.48
-56.51
-58.81
-61.31
-65.21
-71.62
-80.94
-92.50
-104.24
-112.88
-114.73
-106.78
-88.02
-60.06
-26.86
6.42
35.07
56.29
69.69
76.86
80.17
81.62
82.16
81.71
79.79
76.10
70.90
64.90
58.93
53.64
49.30
45.87
43.29
41.53
40.69
40.77
41.45
41.87
40.92
37.52
31.23
22.53
12.79
3.70
-3.50
-8.51
-12.13
-15.70
-20.39
-26.64
-33.94
-41.20
-47.28
-51.47
-53.80
-54.99
-56.31
-59.18
-64.89
-73.92
-85.43
-96.97
-104.86
-105.15
-95.08
-74.25
-45.07
-12.01
19.77
46.09
64.82
76.09
81.54
83.27
82.91
81.29
78.56
74.74
70.00
64.81
59.67
55.04
51.07
47.76
45.03
42.89
41.42
40.59
40.06
39.25
37.35
33.60
27.58
19.43
9.81
-0.26
-9.72
-17.85
-24.53
-30.16
-35.43
-40.90
-46.69
-52.39
-57.27
-60.73
-62.60
-63.46
-64.43
-66.95
-72.21
-80.57
-91.20
-101.74
-108.77
-108.64
-98.76
-78.64
-50.37
-18.10
13.24
39.51
58.48
70.12
76.01
78.27
78.50
77.26
74.25
68.92
61.12
51.61
41.86
33.56
27.90
25.18
24.70
25.22
25.54
24.96
23.40
21.16
18.52
15.54
11.91
7.16
0.97
-6.69
-15.39
-24.40
-32.80
-39.81
-45.02
-48.47
-50.68
-52.40
-54.52
-57.87
-63.09
-70.52
-79.81
-89.61
-97.38
-99.88
-94.04
-78.28
-53.34
-22.36
10.04
39.29
62.25
77.95
87.25
92.00
93.92
93.96
92.25
88.42
82.23
73.97
64.53
55.18
47.24
41.52
38.14
36.46
35.45
34.11
31.84
28.57
24.69
20.56
16.30
11.62
6.03
-0.91
-9.24
-18.56
-28.12
-37.00
-44.50
-50.20
-54.14
-56.78
-58.89
-61.43
-65.34
-71.34
-79.59
-89.42
-99.09
-105.90
-106.74
-99.07
-81.85
-56.18
-25.28
6.45
34.73
56.65
71.32
79.67
83.72
85.44
86.00
85.60
83.83
80.19
74.61
67.61
60.07
52.95
46.89
42.22
38.94
36.85
35.64
34.83
33.82
31.90
28.52
23.44
16.93
9.56
2.05
-5.11
-11.78
-18.18
-24.64
-31.42
-38.43
-45.24
-51.26
-55.98
-59.28
-61.60
-63.91
-67.49
-73.50
-82.41
-93.49
-104.51
-112.00
-112.13
-102.08
-81.24
-51.79
-18.19
14.28
41.22
60.39
72.01
78.00
80.74
81.98
82.35
81.61
79.26
75.12
69.61
63.55
57.81
52.97
49.15
46.15
43.68
41.59
39.94
38.84
38.21
37.60
36.13
32.80
26.91
18.47
8.32
-2.01
-10.93
-17.41
-21.46
-24.08
-26.73
-30.65
-36.26
-43.00
-49.74
-55.38
-59.32
-61.68
-63.21
-65.00
-68.22
-73.82
-82.22
-92.77
-103.45
-110.98
-111.60
-102.37
-82.43
-53.66
-20.25
12.73
40.98
62.12
76.05
84.24
88.68
90.90
91.51
90.38
87.16
81.82
74.86
67.29
60.20
54.47
50.50
48.17
47.10
46.76
46.60
46.09
44.77
42.28
38.43
33.23
26.86
19.59
11.69
3.43
-4.80
-12.51
-19.23
-24.68
-28.86
-32.16
-35.20
-38.51
-42.38
-46.76
-51.22
-55.21
-58.22
-60.08
-61.07
-61.86
-63.36
-66.46
-71.76
-79.48
-89.30
-100.12
-109.90
-115.77
-114.61
-104.05
-83.55
-55.02
-22.42
9.35
36.16
55.80
68.28
75.23
78.65
79.96
79.62
77.39
72.95
66.45
58.61
50.54
43.31
37.64
33.72
31.34
30.06
29.46
29.18
28.93
28.43
27.37
25.44
22.34
17.90
12.11
5.20
-2.28
-9.53
-15.73
-20.26
-23.03
-24.52
-25.67
-27.53
-30.81
-35.62
-41.42
-47.22
-51.99
-55.13
-56.67
-57.31
-58.23
-60.72
-65.77
-73.74
-84.06
-95.12
-104.27
-108.30
-104.22
-90.29
-66.81
-36.38
-3.26
27.84
53.19
70.98
81.47
86.32
87.59
86.78
84.55
80.90
75.66
68.94
61.27
53.46
46.28
40.31
35.88
33.04
31.77
31.84
32.81
33.94
34.27
32.92
29.27
23.25
15.39
6.65
-1.88
-9.33
-15.31
-20.06
-24.21
-28.42
-33.02
-37.82
-42.20
-45.59
-47.84
-49.45
-51.44
-55.00
-61.08
-69.96
-80.94
-92.13
-100.58
-102.79
-95.78
-78.39
-51.97
-20.31
11.61
39.18
59.72
72.97
80.50
84.58
86.96
88.34
88.48
86.79
82.94
77.18
70.26
63.18
56.87
51.90
48.49
46.48
45.54
45.20
45.00
44.33
42.52
38.91
33.08
25.12
15.73
6.07
-2.66
-9.71
-15.15
-19.77
-24.60
-30.40
-37.18
-44.21
-50.38
-54.83
-57.43
-58.88
-60.60
-64.20
-70.93
-81.04
-93.28
-104.83
-111.73
-110.01
-97.11
-73.13
-41.00
-5.78
27.08
53.46
71.65
82.31
87.53
89.60
90.04
89.38
87.46
84.06
79.27
73.59
67.76
62.46
58.06
54.64
52.07
50.20
48.95
48.31
48.24
48.49
48.52
47.53
44.63
39.22
31.22
21.29
10.64
0.55
-7.98
-14.65
-19.81
-24.37
-29.19
-34.84
-41.33
-48.11
-54.32
-59.13
-62.13
-63.63
-64.61
-66.54
-70.79
-78.29
-88.96
-101.56
-113.62
-121.82
-122.77
-113.97
-94.81
-67.17
-34.99
-3.08
24.40
45.15
59.18
68.12
74.04
78.41
81.58
83.02
81.94
77.88
71.09
62.57
53.83
46.44
41.65
39.94
40.96
43.66
46.77
49.12
50.01
49.05
46.09
41.06
34.03
25.42
16.04
6.94
-0.94
-7.19
-12.05
-16.14
-20.05
-24.13
-28.40
-32.75
-37.22
-42.01
-47.23
-52.58
-57.37
-60.75
-62.21
-62.02
-61.25
-61.43
-63.98
-69.64
-78.29
-88.79
-99.03
-106.16
-107.03
-99.05
-81.17
-54.56
-22.60
10.07
38.98
61.28
76.37
85.50
90.67
93.49
94.51
93.34
89.38
82.55
73.62
64.01
55.27
48.51
44.09
41.70
40.67
40.32
40.17
39.85
39.08
37.45
34.40
29.44
22.28
13.11
2.69
-7.72
-16.74
-23.28
-26.98
-28.46
-29.06
-30.39
-33.59
-38.85
-45.40
-51.80
-56.67
-59.28
-59.85
-59.48
-59.77
-62.29
-68.13
-77.45
-89.27
-101.34
-110.31
-112.45
-104.68
-85.85
-57.36
-23.11
11.65
41.97
64.71
79.24
86.97
90.30
91.35
91.19
89.89
87.09
82.66
76.97
70.88
65.25
60.64
57.07
54.27
51.85
49.63
47.74
46.45
45.82
45.47
44.56
41.97
36.84
29.01
19.19
8.80
-0.69
-8.26
-13.85
-18.26
-22.77
-28.42
-35.53
-43.54
-51.32
-57.69
-61.96
-64.23
-65.37
-66.78
-70.01
-76.25
-85.95
-98.27
-110.89
-120.16
-122.01
-113.28
-93.09
-63.48
-28.96
4.94
33.51
54.29
67.36
74.71
78.84
81.64
83.72
84.73
83.93
80.94
75.98
69.90
63.70
58.21
53.80
50.52
48.23
46.78
46.09
46.04
46.24
46.03
44.57
41.08
35.06
26.59
16.32
5.40
-4.79
-13.07
-18.91
-22.64
-25.43
-28.74
-33.76
-40.81
-49.24
-57.68
-64.65
-69.15
-71.04
-71.12
-70.89
-72.13
-76.42
-84.64
-96.45
-109.93
-121.74
-127.75
-124.29
-109.42
-83.90
-51.09
-16.04
16.18
42.00
60.13
71.43
77.85
81.30
82.83
82.67
80.63
76.71
71.40
65.51
59.87
55.02
51.18
48.26
46.13
44.64
43.63
42.88
42.06
40.87
38.98
36.12
32.05
26.57
19.61
11.32
2.16
-7.14
-15.78
-23.08
-28.63
-32.48
-35.05
-37.08
-39.41
-42.65
-46.97
-51.99
-56.95
-61.08
-63.94
-65.65
-66.87
-68.51
-71.53
-76.67
-84.31
-94.15
-104.86
-113.92
-117.93
-113.53
-98.65
-73.54
-41.05
-5.87
26.94
53.58
72.41
84.00
90.25
93.17
94.01
92.95
89.56
83.52
75.19
65.73
56.74
49.62
45.09
43.02
42.74
43.43
44.42
45.31
45.78
45.46
43.89
40.78
36.07
30.07
23.34
16.47
9.90
3.80
-1.84
-7.15
-12.18
-16.87
-21.04
-24.54
-27.44
-30.04
-32.85
-36.36
-40.75
-45.81
-50.99
-55.61
-59.27
-62.03
-64.40
-67.30
-71.78
-78.78
-88.67
-100.84
-113.20
-122.31
-124.15
-115.41
-94.96
-64.58
-28.60
7.49
38.77
62.27
77.50
85.86
89.64
90.82
90.54
89.07
86.18
81.69
75.80
69.16
62.63
57.06
53.00
50.62
49.74
49.97
50.85
51.86
52.44
52.04
50.25
46.85
41.94
35.82
28.91
21.60
14.15
6.69
-0.65
-7.70
-14.19
-19.80
-24.33
-27.84
-30.73
-33.58
-36.99
-41.22
-46.13
-51.19
-55.84
-59.69
-62.80
-65.66
-69.00
-73.68
-80.44
-89.66
-100.97
-112.84
-122.42
-126.05
-120.36
-103.63
-76.79
-43.42
-8.65
22.61
47.12
64.01
74.42
80.37
83.77
85.72
86.55
86.15
84.46
81.61
78.02
74.20
70.63
67.61
65.28
63.63
62.63
62.19
62.13
62.17
61.72
60.06
56.58
51.02
43.68
35.37
27.11
19.67
13.37
7.99
2.97
-2.20
-7.77
-13.53
-18.98
-23.56
-26.99
-29.49
-31.69
-34.42
-38.31
-43.46
-49.42
-55.32
-60.31
-63.94
-66.33
-68.22
-70.77
-75.29
-82.79
-93.50
-106.28
-118.38
-125.83
-124.55
-111.85
-87.73
-55.17
-19.32
14.25
41.31
60.07
71.16
76.75
79.25
80.39
80.85
80.56
79.18
76.60
73.13
69.29
65.60
62.32
59.49
57.05
55.05
53.73
53.31
53.75
54.52
54.72
53.33
49.64
43.53
35.51
26.50
17.48
9.17
1.90
-4.42
-10.05
-15.23
-19.93
-23.92
-26.95
-28.97
-30.35
-31.86
-34.36
-38.44
-44.10
-50.67
-57.07
-62.30
-65.81
-67.84
-69.33
-71.66
-76.20
-83.75
-94.10
-105.78
-116.00
-121.20
-117.97
-104.28
-80.43
-49.19
-15.11
16.95
43.32
62.37
74.52
81.33
84.45
84.98
83.35
79.71
74.42
68.21
61.98
56.48
52.06
48.65
45.98
43.86
42.23
41.25
41.03
41.37
41.67
41.02
38.41
33.22
25.48
16.01
6.10
-3.01
-10.63
-16.84
-22.39
-28.12
-34.45
-41.12
-47.33
-52.22
-55.30
-56.88
-57.88
-59.61
-63.44
-70.42
-80.84
-93.83
-107.01
-116.66
-118.66
-109.85
-89.44
-59.73
-25.41
7.94
35.70
55.61
67.94
74.64
78.20
80.44
82.16
83.26
83.23
81.73
78.69
74.42
69.40
64.22
59.37
55.32
52.50
51.23
51.54
52.98
54.57
54.97
52.90
47.68
39.44
29.12
18.11
7.66
-1.44
-9.09
-15.73
-22.06
-28.65
-35.66
-42.80
-49.51
-55.29
-60.04
-64.28
-69.01
-75.43
-84.50
-96.43
-110.20
-123.39
-132.37
-133.24
-123.15
-101.59
-71.02
-36.28
-3.06
24.12
43.23
54.96
61.74
66.30
70.39
74.47
78.03
80.33
80.97
80.08
78.17
75.87
73.68
71.85
70.40
69.27
68.37
67.71
67.34
67.22
67.07
66.22
63.78
58.91
51.25
41.13
29.62
18.20
8.20
0.34
-5.64
-10.79
-16.51
-23.90
-33.23
-43.74
-54.02
-62.58
-68.55
-72.03
-74.11
-76.41
-80.63
-88.05
-99.18
-113.46
-129.08
-142.85
-150.72
-148.79
-134.77
-109.07
-75.17
-38.61
-5.20
20.95
38.55
48.98
55.09
59.69
64.47
69.65
74.58
78.44
80.81
81.87
82.12
82.08
82.02
81.92
81.67
81.27
80.97
81.13
81.95
83.25
84.36
84.34
82.33
77.83
70.97
62.38
53.01
43.93
35.96
29.53
24.52
20.32
16.03
10.78
4.11
-3.83
-12.26
-20.09
-26.40
-30.79
-33.67
-36.08
-39.32
-44.38
-51.49
-59.99
-68.62
-76.08
-81.59
-85.22
-87.83
-90.66
-95.01
-101.88
-111.76
-124.25
-137.71
-149.03
-154.13
-149.16
-132.04
-103.69
-68.03
-30.81
2.45
28.19
45.60
56.21
62.53
66.80
70.26
73.12
75.11
75.95
75.65
74.58
73.19
71.88
70.84
70.05
69.40
68.93
68.88
69.53
70.98
72.86
74.28
74.08
71.25
65.42
56.97
46.95
36.66
27.16
18.92
11.77
5.09
-1.80
-9.16
-16.62
-23.27
-28.18
-31.00
-32.30
-33.49
-36.23
-41.65
-49.77
-59.51
-69.14
-77.14
-82.77
-86.35
-89.06
-92.46
-97.97
-106.56
-118.42
-132.50
-146.32
-156.14
-157.68
-147.63
-124.99
-91.92
-53.35
-15.43
16.55
39.84
54.77
63.83
70.16
76.03
82.10
87.80
92.17
94.69
95.53
95.34
94.77
94.05
93.08
91.63
89.61
87.22
84.76
82.47
80.37
78.18
75.40
71.35
65.38
57.02
46.25
33.67
20.52
8.29
-1.70
-8.87
-13.50
-16.68
-19.81
-24.10
-30.14
-37.74
-46.05
-53.95
-60.50
-65.34
-68.90
-72.26
-76.78
-83.70
-93.72
-106.55
-120.54
-132.72
-139.11
-135.82
-120.47
-93.44
-58.17
-20.29
14.36
41.62
60.15
71.21
77.39
81.13
83.75
85.44
85.85
84.85
82.73
80.14
77.62
75.46
73.60
71.89
70.26
68.82
67.74
67.07
66.73
66.40
65.58
63.72
60.38
55.26
48.30
39.70
29.92
19.63
9.66
0.75
-6.65
-12.55
-17.49
-22.35
-27.96
-34.79
-42.72
-51.03
-58.81
-65.35
-70.47
-74.60
-78.68
-83.81
-91.02
-101.03
-113.88
-128.61
-142.89
-153.12
-155.13
-145.56
-123.35
-90.61
-52.26
-14.49
17.34
40.41
54.92
63.29
68.57
73.06
77.58
81.72
84.68
85.94
85.60
84.23
82.52
80.93
79.67
78.74
78.06
77.66
77.60
77.88
78.28
78.36
77.42
74.75
69.83
62.55
53.38
43.30
33.56
25.26
19.00
14.59
11.12
7.33
2.11
-4.98
-13.55
-22.48
-30.39
-36.17
-39.54
-41.15
-42.35
-44.64
-49.03
-55.56
-63.30
-70.78
-76.71
-80.43
-82.24
-83.23
-84.95
-88.98
-96.54
-107.97
-122.16
-136.27
-145.97
-146.57
-134.69
-109.83
-74.97
-35.72
1.52
31.77
52.82
65.34
71.81
75.10
77.30
79.31
81.11
82.28
82.55
81.94
80.69
79.11
77.44
75.83
74.30
72.92
71.82
71.15
70.99
71.24
71.46
70.90
68.65
63.96
56.53
46.70
35.47
24.25
14.37
6.71
1.36
-2.28
-5.24
-8.45
-12.46
-17.21
-22.17
-26.65
-30.13
-32.58
-34.50
-36.75
-40.25
-45.57
-52.57
-60.42
-67.90
-73.91
-77.91
-80.20
-81.79
-84.05
-88.37
-95.74
-106.37
-119.36
-132.39
-141.77
-143.31
-133.60
-111.48
-78.99
-40.88
-3.23
28.64
51.77
66.10
73.69
77.39
79.52
81.15
82.26
82.25
80.58
77.17
72.48
67.30
62.51
58.77
56.42
55.52
55.86
57.08
58.63
59.86
60.01
58.41
54.60
48.53
40.50
31.12
21.16
11.35
2.35
-5.38
-11.60
-16.39
-20.14
-23.44
-26.99
-31.39
-36.95
-43.62
-50.98
-58.25
-64.58
-69.29
-72.19
-73.80
-75.16
-77.69
-82.73
-91.18
-102.98
-116.79
-129.81
-138.08
-137.53
-125.25
-100.83
-66.96
-28.71
8.01
38.39
60.11
73.54
80.92
84.95
87.70
90.05
92.02
93.23
93.43
92.62
91.03
88.89
86.40
83.76
81.24
79.18
77.84
77.25
77.05
76.62
75.25
72.36
67.64
61.05
52.76
42.99
32.05
20.45
8.92
-1.68
-10.58
-17.37
-22.19
-25.72
-28.97
-32.93
-38.22
-44.93
-52.50
-60.01
-66.52
-71.41
-74.69
-77.06
-79.68
-83.89
-90.86
-101.28
-114.90
-130.14
-143.84
-151.68
-149.27
-133.81
-105.53
-68.06
-27.50
9.67
38.73
58.04
68.93
74.39
77.41
79.81
82.07
83.83
84.65
84.44
83.51
82.24
80.84
79.32
77.58
75.64
73.76
72.33
71.78
72.26
73.53
74.85
75.17
73.40
68.81
61.35
51.68
41.03
30.75
21.95
15.08
9.92
5.67
1.37
-3.75
-9.99
-17.10
-24.39
-31.01
-36.31
-40.13
-42.91
-45.54
-49.07
-54.15
-60.85
-68.50
-76.03
-82.32
-86.72
-89.31
-90.90
-92.82
-96.57
-103.39
-113.76
-127.00
-140.89
-151.72
-155.07
-147.14
-126.30
-94.13
-55.21
-15.80
18.24
43.34
58.92
66.97
70.66
72.83
75.09
77.79
80.51
82.80
84.46
85.64
86.52
87.16
87.38
86.94
85.79
84.20
82.76
82.09
82.45
83.51
84.32
83.60
80.26
73.85
64.82
54.32
43.75
34.33
26.63
20.44
15.03
9.46
3.01
-4.54
-12.86
-21.08
-28.26
-33.73
-37.53
-40.43
-43.70
-48.52
-55.40
-63.98
-73.10
-81.37
-87.75
-91.96
-94.54
-96.65
-99.72
-105.13
-113.84
-125.94
-140.11
-153.38
-161.49
-159.99
-146.00
-119.44
-83.54
-43.90
-6.71
23.37
44.43
57.35
64.74
69.42
73.26
76.87
79.92
81.97
82.88
82.89
82.39
81.60
80.49
78.96
77.07
75.25
74.10
74.01
74.87
75.98
76.24
74.56
70.30
63.40
54.38
44.07
33.36
22.93
13.23
4.52
-3.08
-9.37
-14.27
-17.90
-20.84
-24.01
-28.46
-34.81
-42.92
-51.79
-60.02
-66.46
-70.77
-73.54
-76.04
-79.80
-86.13
-95.86
-109.03
-124.40
-139.15
-149.07
-149.63
-137.51
-112.28
-76.87
-36.92
1.25
32.64
54.98
68.76
76.22
79.95
81.83
82.69
82.67
81.58
79.43
76.50
73.23
70.10
67.50
65.61
64.40
63.77
63.63
64.00
64.94
66.37
67.92
68.78
67.86
64.15
57.12
47.04
35.02
22.69
11.70
3.08
-3.07
-7.60
-11.95
-17.54
-25.17
-34.64
-44.93
-54.59
-62.45
-68.11
-72.14
-75.79
-80.58
-87.80
-98.22
-111.92
-128.01
-144.39
-157.67
-163.68
-158.75
-141.15
-112.26
-76.47
-39.82
-7.82
16.35
32.47
42.66
49.79
56.14
62.62
69.12
75.14
80.38
84.87
88.75
92.02
94.47
95.83
96.06
95.46
94.59
94.03
94.17
94.99
96.05
96.63
95.91
93.23
88.30
81.29
72.80
63.68
54.85
47.04
40.55
35.18
30.33
25.26
19.36
12.50
5.07
-2.15
-8.36
-13.17
-16.88
-20.36
-24.78
-31.03
-39.32
-49.10
-59.19
-68.38
-75.88
-81.63
-86.26
-90.79
-96.35
-103.96
-114.30
-127.46
-142.42
-156.66
-166.30
-167.08
-156.07
-133.05
-101.06
-65.48
-31.99
-4.58
15.53
29.55
39.85
48.49
56.53
64.04
70.68
76.25
80.85
84.70
87.89
90.33
91.85
92.37
92.08
91.43
91.07
91.56
93.02
94.99
96.51
96.45
93.99
88.98
82.03
74.15
66.34
59.19
52.74
46.67
40.56
34.14
27.49
20.93
14.90
9.79
5.74
2.60
-0.13
-3.13
-7.10
-12.47
-19.28
-27.10
-35.18
-42.72
-49.26
-54.82
-59.91
-65.19
-70.99
-77.12
-82.84
-87.30
-90.12
-91.77
-93.46
-96.76
-103.01
-112.83
-125.86
-140.54
-154.07
-162.71
-162.54
-150.71
-126.81
-93.34
-55.30
-18.53
12.23
34.78
49.65
59.14
65.84
71.47
76.53
80.70
83.43
84.56
84.31
83.20
81.75
80.35
79.21
78.43
78.12
78.42
79.55
81.54
84.03
86.18
86.79
84.74
79.43
71.15
61.02
50.55
41.16
33.68
28.16
23.97
20.03
15.28
9.04
1.31
-7.22
-15.30
-21.74
-25.95
-28.25
-29.90
-32.55
-37.47
-45.04
-54.53
-64.46
-73.21
-79.73
-83.89
-86.45
-88.83
-92.63
-99.25
-109.44
-122.86
-137.63
-150.29
-156.32
-151.51
-133.69
-103.86
-66.38
-27.51
6.71
32.53
49.33
59.04
64.57
68.31
71.45
74.14
76.26
77.97
79.70
81.87
84.48
87.00
88.69
89.00
87.87
85.80
83.66
82.32
82.31
83.53
85.23
86.23
85.27
81.51
74.81
65.89
56.01
46.50
38.35
31.80
26.37
21.16
15.35
8.56
1.10
-6.26
-12.61
-17.49
-21.16
-24.55
-28.84
-34.93
-42.95
-52.17
-61.32
-69.15
-74.91
-78.72
-81.43
-84.31
-88.70
-95.66
-105.77
-118.79
-133.32
-146.49
-154.33
-152.68
-138.80
-112.72
-77.68
-39.32
-3.74
24.52
43.81
55.25
61.58
65.60
69.11
72.63
75.90
78.54
80.44
81.74
82.61
83.01
82.77
81.71
79.98
78.11
76.76
76.48
77.35
78.89
80.14
80.05
77.76
72.83
65.32
55.82
45.26
34.73
25.28
17.65
12.02
7.96
4.59
0.94
-3.76
-9.71
-16.54
-23.48
-29.70
-34.62
-38.19
-40.91
-43.67
-47.38
-52.60
-59.22
-66.52
-73.47
-79.15
-83.20
-86.00
-88.47
-91.81
-97.11
-105.00
-115.45
-127.39
-138.48
-145.22
-143.76
-131.15
-106.70
-72.84
-34.52
2.26
32.54
53.88
66.69
73.32
76.56
78.35
79.31
79.20
77.63
74.67
71.01
67.57
65.08
63.81
63.59
64.00
64.69
65.44
66.15
66.63
66.50
65.23
62.28
57.30
50.36
41.95
32.81
23.67
15.09
7.28
0.18
-6.35
-12.35
-17.72
-22.26
-25.93
-29.01
-32.07
-35.84
-40.82
-47.02
-54.05
-61.24
-67.95
-73.85
-79.05
-84.07
-89.74
-97.10
-106.98
-119.54
-133.61
-146.28
-153.33
-150.42
-134.86
-106.94
-70.37
-31.12
4.58
32.37
50.87
61.46
66.96
70.13
72.57
74.68
76.22
77.01
77.23
77.32
77.56
77.87
77.85
77.15
75.75
74.10
72.78
72.18
72.24
72.41
71.89
70.08
66.70
61.90
56.05
49.53
42.57
35.23
27.43
19.10
10.40
1.71
-6.38
-13.32
-18.89
-23.40
-27.54
-32.20
-38.03
-45.11
-53.07
-61.21
-68.84
-75.55
-81.38
-86.78
-92.52
-99.63
-109.10
-121.42
-135.88
-150.12
-160.32
-162.12
-152.24
-130.00
-97.96
-61.18
-25.53
4.34
26.35
41.06
50.65
57.57
63.35
68.46
72.69
75.83
78.02
79.73
81.36
82.97
84.31
84.96
84.75
83.92
83.05
82.73
83.31
84.69
86.28
87.20
86.62
84.00
79.31
73.08
66.12
59.29
53.01
47.21
41.49
35.43
29.00
22.68
17.20
13.01
10.02
7.51
4.46
0.19
-5.42
-11.79
-18.04
-23.46
-27.93
-31.94
-36.38
-42.04
-49.18
-57.37
-65.70
-73.13
-79.05
-83.53
-87.19
-90.97
-95.84
-102.62
-111.96
-124.13
-138.58
-153.33
-164.83
-168.66
-161.11
-140.92
-110.22
-74.02
-38.53
-8.74
12.97
27.11
36.10
42.67
48.70
54.93
61.15
66.89
71.86
75.98
79.30
81.90
83.75
84.83
85.16
84.98
84.69
84.83
85.74
87.37
89.24
90.59
90.63
88.95
85.58
80.93
75.55
69.91
64.34
59.00
53.93
49.05
44.16
38.92
32.89
25.77
17.53
8.50
-0.66
-9.16
-16.42
-22.33
-27.42
-32.63
-38.89
-46.72
-55.85
-65.32
-73.90
-80.61
-85.09
-87.83
-89.92
-92.73
-97.71
-106.04
-118.27
-133.86
-150.67
-164.92
-171.93
-167.62
-150.14
-121.00
-84.71
-47.35
-14.45
10.78
28.04
39.20
46.95
53.51
59.92
66.22
71.96
76.74
80.37
82.86
84.19
84.33
83.34
81.51
79.45
77.98
77.76
79.04
81.44
84.02
85.55
84.98
81.71
75.89
68.24
59.77
51.37
43.57
36.40
29.58
22.77
15.88
9.13
2.88
-2.65
-7.70
-12.94
-19.22
-27.10
-36.55
-46.85
-56.94
-65.90
-73.35
-79.67
-85.73
-92.69
-101.57
-113.06
-127.05
-142.37
-156.42
-165.42
-165.37
-153.42
-129.36
-96.06
-58.79
-23.43
5.51
26.23
39.63
48.22
54.67
60.66
66.72
72.56
77.79
82.28
86.19
89.66
92.65
94.91
96.09
95.99
94.72
92.65
90.35
88.38
87.08
86.40
85.88
84.71
82.06
77.39
70.77
62.93
54.97
47.92
42.33
38.00
34.11
29.62
23.79
16.47
8.27
0.19
-6.70
-11.87
-15.54
-18.67
-22.66
-28.75
-37.45
-48.32
-60.08
-71.16
-80.33
-87.18
-92.22
-96.65
-101.86
-109.14
-119.34
-132.61
-147.98
-162.99
-173.80
-176.03
-166.34
-143.95
-111.47
-74.24
-38.47
-9.04
12.00
25.50
34.09
40.55
46.68
53.05
59.48
65.68
71.57
77.22
82.50
87.00
90.12
91.40
90.90
89.18
87.19
85.84
85.68
86.71
88.36
89.80
90.22
89.04
86.12
81.67
76.13
70.01
63.78
57.76
52.16
47.08
42.56
38.53
34.79
31.00
26.81
21.94
16.38
10.43
4.54
-0.92
-5.89
-10.75
-16.20
-23.00
-31.53
-41.61
-52.46
-62.98
-72.13
-79.36
-84.81
-89.27
-93.89
-99.87
-108.26
-119.59
-133.54
-148.39
-160.94
-166.98
-162.66
-146.15
-118.73
-84.74
-50.08
-20.08
2.34
17.19
26.68
33.60
40.01
46.65
53.30
59.48
65.00
69.94
74.39
78.20
80.99
82.36
82.29
81.24
80.06
79.67
80.63
82.88
85.69
88.07
89.09
88.27
85.68
81.78
77.15
72.21
67.16
62.04
56.86
51.65
46.42
41.12
35.53
29.35
22.36
14.63
6.55
-1.27
-8.30
-14.41
-19.96
-25.77
-32.68
-41.24
-51.36
-62.26
-72.74
-81.63
-88.19
-92.46
-95.26
-97.98
-102.18
-109.29
-120.06
-134.14
-149.63
-163.05
-169.98
-166.33
-149.94
-121.75
-85.79
-47.97
-14.05
12.20
29.90
40.58
46.91
51.32
55.27
59.20
63.06
66.67
69.94
72.74
74.79
75.81
75.64
74.45
72.82
71.54
71.29
72.36
74.48
76.80
78.15
77.38
73.81
67.46
58.98
49.41
39.72
30.53
21.97
13.83
5.86
-2.04
-9.66
-16.62
-22.61
-27.68
-32.29
-37.22
-43.22
-50.63
-59.09
-67.76
-75.56
-81.77
-86.32
-89.84
-93.45
-98.41
-105.81
-116.22
-129.24
-143.04
-154.27
-158.65
-152.30
-133.37
-103.17
-66.04
-27.99
5.43
30.86
47.82
58.13
64.50
69.25
73.55
77.62
81.17
83.94
85.93
87.23
87.91
87.86
86.85
84.78
81.88
78.81
76.44
75.55
76.37
78.34
80.19
80.44
77.89
72.18
63.88
54.27
44.92
37.07
31.28
27.31
24.29
21.10
16.85
11.25
4.65
-2.13
-8.24
-13.25
-17.35
-21.35
-26.28
-32.88
-41.31
-50.94
-60.68
-69.42
-76.48
-81.89
-86.35
-91.01
-97.12
-105.74
-117.44
-131.80
-147.00
-159.65
-165.44
-160.45
-142.82
-113.90
-78.17
-41.73
-10.12
13.52
29.06
38.68
45.24
50.90
56.60
62.24
67.42
71.91
75.71
78.87
81.29
82.72
82.97
82.16
80.75
79.42
78.89
79.55
81.31
83.57
85.35
85.61
83.63
79.29
73.08
65.94
58.86
52.59
47.42
43.20
39.54
35.95
31.95
27.15
21.31
14.40
6.68
-1.29
-8.82
-15.42
-21.06
-26.20
-31.66
-38.24
-46.27
-55.40
-64.74
-73.13
-79.71
-84.23
-87.21
-89.79
-93.38
-99.39
-108.81
-121.85
-137.37
-152.69
-163.66
-165.75
-155.67
-132.83
-100.05
-62.80
-27.29
1.64
21.96
34.49
41.75
46.44
50.42
54.44
58.55
62.72
67.01
71.43
75.76
79.46
81.86
82.54
81.53
79.43
77.14
75.61
75.47
76.78
79.01
81.05
81.68
79.87
75.22
68.07
59.38
50.34
42.08
35.23
29.91
25.71
21.93
17.87
13.08
7.48
1.43
-4.49
-9.82
-14.48
-18.89
-23.90
-30.31
-38.42
-47.79
-57.35
-65.84
-72.42
-77.07
-80.63
-84.52
-90.17
-98.63
-110.23
-124.40
-139.36
-152.13
-158.84
-155.72
-140.48
-113.54
-78.33
-40.42
-5.66
21.76
40.46
51.66
58.05
62.32
66.13
69.92
73.40
76.17
78.12
79.34
80.02
80.20
79.79
78.71
77.18
75.70
74.99
75.62
77.64
80.41
82.68
83.00
80.27
74.19
65.39
55.19
45.16
36.54
29.83
24.76
20.43
15.85
10.36
3.95
-2.79
-8.98
-13.98
-17.73
-20.87
-24.50
-29.64
-36.80
-45.64
-55.14
-64.05
-71.40
-76.93
-81.21
-85.44
-91.07
-99.36
-110.93
-125.35
-140.74
-153.74
-160.11
-155.92
-139.15
-110.80
-74.94
-37.46
-4.05
21.68
39.04
49.69
56.32
61.24
65.62
69.65
73.15
76.01
78.38
80.42
82.01
82.85
82.56
81.08
78.79
76.41
74.73
74.25
74.88
75.95
76.48
75.43
72.20
66.82
59.96
52.60
45.62
39.46
33.94
28.49
22.39
15.22
7.09
-1.38
-9.32
-16.00
-21.21
-25.42
-29.54
-34.60
-41.24
-49.41
-58.42
-67.23
-74.92
-81.07
-85.96
-90.40
-95.60
-102.80
-112.96
-126.14
-140.93
-154.16
-161.36
-158.13
-141.91
-113.40
-76.65
-37.82
-2.91
24.14
42.40
53.50
60.10
64.60
68.31
71.55
74.25
76.40
78.23
80.07
82.03
83.94
85.41
86.05
85.68
84.56
83.23
82.32
82.22
82.79
83.29
82.74
80.27
75.48
68.61
60.36
51.65
43.29
35.79
29.29
23.61
18.26
12.72
6.69
0.26
-6.11
-11.79
-16.37
-20.03
-23.51
-27.92
-34.16
-42.49
-52.31
-62.41
-71.39
-78.32
-83.07
-86.37
-89.57
-94.14
-101.32
-111.77
-125.28
-140.46
-154.48
-163.40
-163.02
-150.43
-125.37
-90.92
-52.73
-17.09
11.20
30.34
41.54
47.82
52.25
56.75
61.73
66.62
70.72
73.73
75.84
77.34
78.40
78.92
78.73
77.86
76.75
76.10
76.56
78.30
80.82
83.05
83.65
81.53
76.24
68.07
57.95
47.16
36.90
27.95
20.49
14.11
8.07
1.65
-5.44
-12.87
-19.88
-25.73
-30.14
-33.59
-37.17
-42.01
-48.76
-57.21
-66.32
-74.73
-81.32
-85.73
-88.45
-90.62
-93.65
-98.84
-107.03
-118.24
-131.32
-143.64
-151.36
-150.34
-137.58
-112.65
-78.29
-39.83
-3.38
26.19
46.76
59.10
65.93
70.30
74.24
78.35
82.12
84.73
85.73
85.22
83.71
81.73
79.61
77.53
75.61
74.09
73.32
73.53
74.66
76.21
77.33
77.04
74.47
69.10
60.82
50.01
37.59
24.83
13.06
3.25
-4.34
-10.31
-15.78
-21.95
-29.54
-38.48
-47.95
-56.75
-63.80
-68.62
-71.55
-73.66
-76.50
-81.61
-90.16
-102.55
-118.07
-134.72
-149.13
-157.16
-154.89
-140.12
-113.49
-78.71
-41.47
-7.60
18.89
36.87
47.74
54.19
58.75
62.88
67.03
71.15
75.15
79.08
82.85
86.09
88.16
88.50
87.03
84.31
81.42
79.45
79.14
80.52
82.91
85.18
86.11
84.78
80.86
74.72
67.23
59.51
52.40
46.18
40.51
34.63
27.84
19.86
11.11
2.51
-4.97
-10.79
-15.11
-18.80
-23.06
-28.89
-36.70
-46.10
-56.11
-65.51
-73.40
-79.57
-84.57
-89.61
-96.13
-105.44
-118.12
-133.54
-149.47
-162.09
-166.90
-160.04
-139.99
-108.56
-70.59
-32.44
0.26
24.40
39.95
49.18
55.10
59.98
64.82
69.52
73.73
77.28
80.32
83.06
85.46
87.15
87.77
87.29
86.19
85.38
85.71
87.54
90.51
93.62
95.62
95.45
92.57
87.13
79.81
71.62
63.60
56.47
50.45
45.25
40.34
35.19
29.59
23.68
17.83
12.35
7.27
2.35
-2.78
-8.43
-14.68
-21.36
-28.05
-34.29
-39.74
-44.40
-48.69
-53.34
-59.12
-66.32
-74.50
-82.57
-89.27
-93.77
-96.22
-97.67
-99.68
-103.79
-111.09
-121.81
-135.08
-148.68
-159.01
-161.75
-153.19
-131.84
-99.45
-60.85
-22.40
10.22
33.90
48.59
56.54
60.68
63.32
65.58
67.68
69.57
71.30
73.04
74.78
76.20
76.84
76.40
75.05
73.38
72.23
72.25
73.64
76.10
78.86
80.96
81.50
79.89
75.98
70.14
63.08
55.62
48.47
42.09
36.61
31.93
27.73
23.56
18.93
13.47
7.16
0.32
-6.47
-12.74
-18.43
-23.96
-30.05
-37.34
-46.00
-55.63
-65.37
-74.21
-81.38
-86.48
-89.61
-91.34
-92.57
-94.47
-98.25
-104.90
-114.69
-126.70
-138.38
-145.88
-144.94
-132.41
-107.72
-73.50
-34.96
1.87
32.17
53.66
66.74
73.60
76.75
78.07
78.46
78.20
77.33
76.01
74.50
73.02
71.69
70.49
69.36
68.23
67.09
66.05
65.33
65.18
65.76
66.84
67.69
67.23
64.41
58.69
50.44
40.82
31.46
23.70
18.14
14.50
11.82
9.00
5.26
0.40
-5.22
-10.95
-16.13
-20.38
-23.83
-27.08
-30.97
-36.31
-43.41
-51.90
-60.68
-68.46
-74.21
-77.75
-79.86
-82.00
-85.81
-92.49
-102.47
-115.09
-128.51
-139.66
-144.71
-139.95
-123.07
-94.38
-57.09
-16.70
20.75
50.56
70.64
81.64
86.07
86.89
86.35
85.59
84.77
83.73
82.37
80.85
79.38
77.98
76.49
74.62
72.24
69.63
67.39
66.12
66.04
66.74
67.21
66.25
62.89
56.72
47.97
37.38
25.98
14.84
4.88
-3.36
-9.90
-15.26
-20.28
-25.62
-31.47
-37.40
-42.64
-46.48
-48.68
-49.70
-50.45
-52.02
-55.19
-60.09
-66.20
-72.46
-77.73
-81.28
-83.07
-83.88
-85.02
-87.87
-93.47
-102.11
-113.03
-124.19
-132.29
-133.42
-124.12
-102.86
-71.09
-33.21
4.74
37.14
60.73
75.30
83.00
86.76
88.78
89.83
89.64
87.72
84.02
79.09
73.81
68.99
65.13
62.44
60.91
60.36
60.52
61.00
61.27
60.74
58.78
54.78
48.25
39.20
28.36
17.13
7.16
-0.34
-5.21
-8.34
-11.22
-15.07
-20.24
-26.14
-31.67
-35.96
-38.80
-40.70
-42.58
-45.30
-49.28
-54.37
-59.97
-65.36
-69.98
-73.71
-76.95
-80.61
-85.74
-93.31
-103.68
-116.14
-128.53
-137.34
-138.43
-128.44
-106.19
-73.63
-35.49
2.11
33.77
56.40
69.83
76.13
78.26
78.78
79.15
79.82
80.63
81.23
81.32
80.70
79.26
76.99
74.03
70.68
67.45
64.92
63.59
63.67
64.93
66.62
67.60
66.72
63.24
57.13
49.14
40.47
32.23
25.00
18.71
12.83
6.80
0.44
-5.99
-11.91
-16.86
-20.80
-24.21
-27.95
-32.79
-39.16
-46.83
-55.05
-62.88
-69.58
-74.97
-79.52
-84.25
-90.35
-98.94
-110.68
-125.34
-141.30
-155.40
-163.37
-161.11
-146.26
-119.53
-84.71
-47.48
-13.39
13.91
33.39
46.19
54.34
59.71
63.49
66.35
68.78
71.23
74.06
77.25
80.36
82.75
83.94
83.76
82.55
80.98
79.90
79.96
81.44
84.00
86.66
88.18
87.41
83.82
77.73
70.11
62.17
54.82
48.31
42.18
35.68
28.20
19.75
11.06
3.25
-2.67
-6.35
-8.21
-9.43
-11.45
-15.45
-21.90
-30.49
-40.25
-49.97
-58.76
-66.32
-73.09
-80.00
-88.22
-98.77
-112.13
-127.81
-144.00
-157.52
-164.32
-160.75
-145.01
-118.15
-84.07
-48.32
-16.19
8.99
26.52
37.83
45.24
50.73
55.39
59.49
63.01
66.00
68.63
71.01
73.05
74.43
74.87
74.32
73.16
72.10
71.96
73.27
76.03
79.53
82.60
83.91
82.53
78.22
71.59
63.85
56.36
50.11
45.39
41.68
37.98
33.28
27.10
19.71
12.03
5.18
-0.08
-3.81
-6.82
-10.42
-15.74
-23.31
-32.73
-42.95
-52.69
-60.97
-67.52
-72.86
-78.08
-84.55
-93.51
-105.67
-120.77
-137.15
-151.70
-160.41
-159.60
-147.32
-124.38
-94.29
-62.10
-32.62
-8.86
8.53
20.80
29.88
37.36
44.04
50.10
55.54
60.45
65.05
69.41
73.29
76.21
77.71
77.62
76.28
74.42
72.95
72.55
73.52
75.49
77.62
78.87
78.40
75.89
71.64
66.40
60.94
55.72
50.66
45.36
39.38
32.57
25.26
18.12
11.79
6.54
2.06
-2.38
-7.69
-14.59
-23.21
-33.05
-43.12
-52.31
-59.91
-65.92
-71.11
-76.76
-84.32
-94.89
-108.82
-125.38
-142.47
-156.69
-164.08
-161.33
-147.15
-122.96
-92.70
-61.40
-33.53
-11.52
4.48
15.89
24.52
31.71
38.01
43.54
48.41
52.85
57.11
61.19
64.75
67.30
68.52
68.47
67.74
67.15
67.49
69.17
72.01
75.21
77.74
78.68
77.56
74.56
70.30
65.49
60.59
55.68
50.58
45.07
39.11
32.91
26.86
21.29
16.38
12.06
8.03
3.80
-1.18
-7.35
-14.81
-23.27
-32.04
-40.36
-47.72
-54.19
-60.43
-67.52
-76.57
-88.31
-102.65
-118.39
-133.08
-143.38
-145.95
-138.57
-121.17
-96.02
-67.15
-38.91
-14.58
4.41
18.48
29.04
37.56
44.94
51.42
56.92
61.39
64.94
67.74
69.91
71.39
72.05
71.89
71.15
70.40
70.32
71.46
73.85
76.91
79.55
80.57
79.15
75.13
69.14
62.20
55.37
49.25
43.86
38.79
33.51
27.73
21.55
15.38
9.69
4.66
0.09
-4.61
-10.13
-16.98
-25.17
-34.19
-43.17
-51.28
-58.05
-63.61
-68.71
-74.42
-81.89
-92.02
-105.12
-120.59
-136.56
-149.91
-156.86
-154.11
-140.13
-116.05
-85.56
-53.67
-25.08
-2.66
13.09
23.56
30.88
36.95
42.78
48.63
54.31
59.63
64.45
68.67
72.00
74.09
74.68
73.77
71.87
69.88
68.85
69.47
71.78
75.11
78.24
79.93
79.37
76.36
71.34
65.17
58.77
52.89
47.93
43.90
40.41
36.89
32.72
27.53
21.20
14.02
6.58
-0.40
-6.37
-11.26
-15.54
-20.17
-26.14
-33.97
-43.36
-53.26
-62.38
-69.77
-75.35
-79.93
-84.87
-91.56
-100.93
-113.25
-127.86
-143.05
-155.97
-163.00
-160.73
-147.25
-123.23
-92.04
-58.77
-28.52
-4.69
11.80
22.23
28.90
33.94
38.52
42.85
46.63
49.64
52.00
54.04
56.06
58.09
59.90
61.12
61.66
61.76
62.04
63.17
65.47
68.64
71.75
73.59
73.19
70.27
65.32
59.40
53.65
48.79
44.87
41.24
36.93
31.16
23.84
15.60
7.66
1.18
-3.30
-6.18
-8.62
-12.07
-17.61
-25.54
-35.32
-45.82
-55.73
-64.09
-70.55
-75.54
-80.12
-85.74
-93.79
-105.15
-119.55
-135.34
-149.46
-157.99
-157.39
-145.72
-123.55
-94.03
-61.90
-31.88
-7.22
11.07
23.94
33.21
40.51
46.68
51.93
56.18
59.58
62.46
65.13
67.64
69.76
71.19
71.82
71.82
71.57
71.47
71.70
72.18
72.66
72.76
72.14
70.54
67.76
63.69
58.36
51.93
44.78
37.42
30.42
24.22
19.04
14.70
10.75
6.56
1.56
-4.57
-11.81
-19.91
-28.51
-37.17
-45.53
-53.34
-60.67
-67.99
-76.28
-86.78
-100.40
-116.94
-134.41
-149.20
-156.96
-154.24
-139.97
-116.04
-86.73
-56.98
-30.78
-9.99
5.65
17.60
27.49
36.30
44.33
51.55
57.91
63.60
68.80
73.43
77.18
79.60
80.46
80.00
78.96
78.27
78.68
80.38
82.88
85.21
86.30
85.43
82.48
77.82
72.11
65.92
59.59
53.12
46.31
39.04
31.40
23.67
16.34
9.79
4.12
-0.98
-6.16
-12.14
-19.39
-27.94
-37.32
-46.78
-55.64
-63.56
-70.67
-77.59
-85.20
-94.46
-106.11
-120.19
-135.58
-149.77
-159.16
-160.08
-150.12
-129.40
-100.75
-68.92
-38.91
-14.22
3.97
16.69
26.00
33.74
40.87
47.45
53.25
58.25
62.78
67.23
71.70
75.83
79.03
80.89
81.46
81.26
81.07
81.49
82.71
84.47
86.16
87.08
86.64
84.47
80.55
75.16
68.77
61.89
54.84
47.63
40.05
31.91
23.20
14.32
5.92
-1.35
-7.20
-11.88
-16.17
-21.15
-27.78
-36.44
-46.74
-57.63
-67.74
-75.90
-81.64
-85.37
-88.32
-92.11
-98.34
-108.05
-121.22
-136.33
-150.35
-159.23
-159.00
-147.33
-124.58
-94.03
-60.82
-30.23
-5.89
11.13
22.04
29.21
34.85
40.30
45.81
51.05
55.61
59.31
62.12
64.13
65.46
66.18
66.51
66.76
67.34
68.53
70.38
72.65
74.79
76.13
76.06
74.25
70.73
65.79
59.93
53.56
46.92
40.09
33.04
25.85
18.75
12.07
6.02
0.45
-5.20
-11.65
-19.36
-28.25
-37.58
-46.29
-53.59
-59.30
-64.02
-68.81
-74.85
-83.04
-93.92
-107.53
-123.20
-139.05
-151.91
-157.83
-153.33
-136.89
-110.05
-77.09
-43.65
-14.64
7.25
22.03
31.58
38.35
44.17
49.90
55.62
61.12
66.26
70.94
75.05
78.33
80.51
81.49
81.37
80.53
79.46
78.60
78.25
78.43
78.90
79.18
78.65
76.71
72.95
67.24
59.79
51.09
41.85
32.79
24.55
17.50
11.58
6.33
1.05
-4.92
-11.87
-19.65
-27.66
-35.18
-41.79
-47.56
-53.10
-59.42
-67.58
-78.46
-92.48
-109.36
-127.79
-145.17
-157.98
-162.50
-156.19
-138.75
-112.59
-82.11
-52.22
-26.67
-7.06
7.11
17.63
26.37
34.48
42.33
49.82
56.81
63.35
69.51
75.15
79.87
83.13
84.62
84.50
83.49
82.57
82.58
83.84
85.95
88.00
88.91
87.94
84.94
80.29
74.71
68.84
63.02
57.20
51.09
44.32
36.66
28.17
19.20
10.33
2.08
-5.28
-11.92
-18.37
-25.38
-33.51
-42.79
-52.73
-62.45
-71.10
-78.32
-84.41
-90.24
-96.99
-105.80
-117.43
-131.90
-148.06
-163.39
-174.29
-176.99
-168.89
-149.77
-122.12
-90.41
-59.46
-32.86
-12.00
3.69
15.78
25.68
34.12
41.22
46.99
51.73
55.98
60.20
64.43
68.23
71.00
72.38
72.53
72.16
72.22
73.42
75.90
79.05
81.79
82.98
81.87
78.43
73.23
67.20
61.23
55.78
50.86
46.10
41.06
35.49
29.43
23.29
17.62
12.87
9.15
6.12
3.02
-1.01
-6.53
-13.61
-21.76
-30.14
-37.93
-44.69
-50.54
-56.09
-62.31
-70.33
-81.08
-95.02
-111.52
-128.68
-143.29
-151.62
-150.58
-138.97
-118.01
-91.07
-62.45
-35.95
-13.80
3.58
17.10
28.14
37.83
46.74
55.01
62.58
69.31
75.04
79.57
82.62
84.06
83.98
82.84
81.34
80.27
80.17
81.15
82.81
84.45
85.29
84.77
82.70
79.22
74.66
69.36
63.60
57.55
51.33
45.07
38.93
33.05
27.49
22.09
16.48
10.23
2.95
-5.43
-14.59
-23.88
-32.65
-40.45
-47.25
-53.43
-59.69
-66.86
-75.79
-87.25
-101.51
-117.80
-133.93
-146.39
-151.30
-145.81
-129.41
-104.32
-74.74
-45.29
-19.49
1.06
16.59
28.28
37.39
44.82
51.09
56.58
61.66
66.59
71.37
75.56
78.55
79.83
79.32
77.52
75.34
73.82
73.66
74.94
77.10
79.17
80.12
79.24
76.37
71.80
66.06
59.69
53.03
46.23
39.38
32.61
26.20
20.45
15.60
11.65
8.21
4.60
0.05
-6.00
-13.69
-22.58
-31.88
-40.69
-48.36
-54.77
-60.35
-65.94
-72.62
-81.47
-93.23
-107.97
-124.48
-140.13
-151.18
-153.85
-145.64
-126.53
-99.14
-67.93
-37.64
-11.81
8.04
22.26
32.29
39.67
45.56
50.65
55.32
59.80
64.21
68.39
71.90
74.20
74.93
74.07
72.10
69.87
68.31
68.09
69.34
71.57
73.80
74.90
73.97
70.70
65.42
59.04
52.67
47.23
43.10
40.03
37.30
34.00
29.50
23.66
16.92
10.00
3.53
-2.31
-7.89
-13.98
-21.32
-30.29
-40.61
-51.49
-61.91
-71.06
-78.68
-85.16
-91.43
-98.60
-107.77
-119.51
-133.56
-148.46
-161.40
-168.76
-167.10
-154.48
-131.38
-100.85
-67.56
-36.21
-10.10
9.64
23.74
33.87
41.69
48.19
53.75
58.41
62.14
64.98
66.91
67.86
67.75
66.63
64.85
62.98
61.68
61.46
62.49
64.47
66.67
68.17
68.13
66.06
61.98
56.39
50.05
43.67
37.73
32.31
27.18
22.01
16.52
10.71
4.85
-0.66
-5.57
-9.92
-14.19
-18.99
-24.82
-31.65
-38.98
-46.01
-52.13
-57.31
-62.13
-67.52
-74.45
-83.62
-95.37
-109.51
-125.01
-139.71
-150.36
-153.33
-145.89
-127.46
-100.13
-68.20
-36.59
-9.19
12.20
27.87
39.38
48.45
56.12
62.62
67.74
71.24
73.16
73.82
73.63
72.97
72.05
70.97
69.85
68.88
68.36
68.57
69.56
71.02
72.32
72.67
71.39
68.10
62.85
55.97
48.01
39.55
31.16
23.34
16.45
10.58
5.45
0.43
-5.31
-12.47
-21.26
-31.27
-41.52
-50.87
-58.55
-64.51
-69.51
-74.81
-81.78
-91.50
-104.44
-120.25
-137.44
-153.22
-163.78
-165.18
-154.76
-132.31
-100.66
-64.84
-30.45
-1.78
19.39
33.76
43.49
50.85
57.23
63.05
68.11
72.16
75.18
77.31
78.63
79.12
78.64
77.25
75.25
73.22
71.75
71.22
71.54
72.23
72.56
71.84
69.57
65.58
59.95
52.95
44.94
36.32
27.57
19.16
11.47
4.71
-1.29
-6.96
-12.97
-19.90
-28.03
-37.16
-46.59
-55.44
-62.99
-69.03
-74.00
-78.86
-84.82
-93.02
-104.28
-118.81
-135.75
-152.79
-166.17
-171.40
-164.80
-145.06
-114.25
-77.35
-40.60
-9.22
14.15
29.82
40.03
47.39
53.70
59.62
65.10
69.99
74.39
78.49
82.23
85.18
86.75
86.56
84.82
82.30
80.11
79.17
79.82
81.60
83.46
84.06
82.37
78.00
71.30
63.15
54.53
46.13
38.16
30.37
22.43
14.16
5.76
-2.30
-9.59
-15.96
-21.77
-27.72
-34.50
-42.51
-51.52
-60.82
-69.51
-76.90
-82.83
-87.76
-92.58
-98.40
-106.29
-117.04
-130.82
-146.68
-162.15
-173.41
-176.23
-167.39
-146.33
-115.64
-80.45
-46.53
-18.27
2.65
17.18
27.75
36.76
45.45
53.82
61.19
66.95
71.01
73.76
75.72
77.22
78.35
79.04
79.35
79.55
80.04
81.16
82.92
84.95
86.62
87.21
86.10
82.92
77.55
70.13
61.14
51.35
41.69
32.97
25.57
19.24
13.18
6.40
-1.82
-11.59
-22.29
-32.84
-42.08
-49.22
-54.25
-57.93
-61.65
-66.96
-75.21
-87.12
-102.55
-120.19
-137.39
-150.51
-155.57
-149.62
-131.87
-104.35
-71.39
-38.20
-9.09
13.71
30.29
42.23
51.43
59.19
66.05
71.99
76.91
80.85
83.90
86.04
87.12
86.97
85.59
83.27
80.62
78.44
77.43
77.93
79.70
81.89
83.24
82.43
78.67
71.85
62.74
52.64
42.89
34.35
27.12
20.52
13.49
5.06
-5.17
-16.79
-28.75
-39.82
-49.02
-56.10
-61.63
-66.84
-73.25
-82.33
-95.02
-111.34
-129.93
-147.86
-161.00
-165.11
-157.32
-137.49
-108.44
-75.16
-42.95
-15.70
5.13
20.28
31.59
40.82
48.99
56.33
62.75
68.26
73.03
77.19
80.61
82.91
83.66
82.65
80.15
76.90
73.91
72.08
71.83
72.86
74.18
74.45
72.47
67.63
60.11
50.81
40.96
31.68
23.59
16.75
10.57
4.19
-3.20
-11.99
-21.97
-32.34
-42.09
-50.43
-57.16
-62.87
-68.73
-76.15
-86.39
-100.09
-116.92
-135.28
-152.21
-163.90
-166.86
-159.09
-141.05
-115.65
-87.18
-59.77
-36.09
-16.82
-1.21
12.07
24.04
35.07
45.07
53.86
61.38
67.68
72.70
76.27
78.13
78.21
76.83
74.73
72.91
72.31
73.45
76.18
79.65
82.54
83.52
81.75
77.08
70.13
61.96
53.65
46.03
39.36
33.37
27.41
20.77
13.02
4.18
-5.26
-14.55
-23.04
-30.52
-37.33
-44.33
-52.70
-63.56
-77.61
-94.65
-113.22
-130.49
-142.72
-146.40
-139.44
-122.19
-97.46
-69.50
-42.51
-19.29
-0.68
14.02
26.15
36.84
46.55
55.28
62.88
69.28
74.50
78.52
81.25
82.57
82.63
81.84
80.92
80.60
81.36
83.22
85.70
87.97
89.13
88.48
85.77
81.21
75.34
68.75
61.81
54.60
46.99
38.86
30.31
21.74
13.68
6.57
0.42
-5.24
-11.24
-18.35
-26.96
-36.83
-47.20
-57.07
-65.71
-72.93
-79.27
-85.71
-93.47
-103.68
-116.94
-132.96
-150.16
-165.54
-175.17
-175.32
-163.85
-141.28
-110.90
-77.64
-46.34
-20.21
-0.17
14.70
26.12
35.59
43.93
51.42
58.16
64.32
70.03
75.22
79.52
82.37
83.40
82.66
80.68
78.38
76.73
76.49
77.87
80.47
83.34
85.36
85.50
83.27
78.74
72.53
65.45
58.35
51.80
46.05
41.02
36.33
31.49
26.04
19.72
12.65
5.27
-1.75
-7.92
-13.20
-18.13
-23.65
-30.72
-39.74
-50.41
-61.72
-72.42
-81.59
-88.94
-94.96
-100.61
-107.06
-115.33
-126.15
-139.60
-154.73
-169.26
-179.72
-182.35
-174.43
-155.46
-127.63
-95.17
-62.84
-34.41
-11.60
5.79
19.12
29.91
39.18
47.35
54.50
60.64
65.81
70.03
73.19
75.11
75.71
75.20
74.10
73.22
73.34
74.89
77.75
81.26
84.45
86.38
86.42
84.43
80.66
75.55
69.59
63.15
56.54
50.03
43.86
38.26
33.36
29.08
25.09
20.83
15.66
9.06
0.89
-8.54
-18.47
-28.01
-36.53
-43.92
-50.70
-57.81
-66.32
-77.13
-90.76
-107.08
-124.91
-141.76
-154.05
-157.91
-150.63
-131.92
-104.29
-72.38
-41.25
-14.60
6.10
21.43
33.02
42.43
50.49
57.46
63.29
68.02
71.74
74.44
75.97
76.15
74.98
72.83
70.28
68.02
66.62
66.36
67.17
68.68
70.30
71.34
71.17
69.33
65.60
60.10
53.17
45.36
37.35
29.81
23.28
17.97
13.71
9.85
5.54
-0.01
-7.19
-15.85
-25.31
-34.67
-43.09
-50.18
-56.15
-61.84
-68.52
-77.51
-89.87
-105.93
-124.81
-144.08
-159.99
-168.31
-165.66
-150.89
-125.79
-94.46
-62.02
-32.77
-9.03
9.06
22.73
33.52
42.48
49.99
56.14
61.11
65.25
68.90
72.09
74.53
75.82
75.80
74.75
73.36
72.47
72.63
73.87
75.70
77.26
77.65
76.26
72.92
67.92
61.79
55.08
48.12
40.99
33.59
25.81
17.74
9.67
1.99
-5.03
-11.46
-17.74
-24.47
-32.14
-40.75
-49.79
-58.46
-65.98
-71.99
-76.75
-81.12
-86.25
-93.39
-103.53
-117.07
-133.42
-150.61
-165.37
-173.74
-172.31
-159.46
-136.28
-106.31
-74.31
-44.72
-20.27
-1.59
12.29
22.97
31.76
39.34
45.89
51.48
56.20
60.17
63.40
65.70
66.87
66.85
65.88
64.53
63.54
63.52
64.86
67.43
70.69
73.73
75.56
75.42
73.00
68.52
62.65
56.22
49.98
44.42
39.71
35.84
32.52
29.29
25.48
20.36
13.44
4.71
-5.19
-15.25
-24.45
-32.26
-38.80
-44.86
-51.58
-60.06
-71.12
-84.96
-100.80
-116.72
-129.77
-136.63
-134.59
-122.73
-102.30
-76.47
-49.21
-24.00
-2.91
13.55
26.05
35.66
43.34
49.74
55.26
60.10
64.41
68.14
71.12
73.14
74.13
74.21
73.72
73.10
72.75
72.88
73.54
74.58
75.67
76.37
76.20
74.72
71.57
66.69
60.25
52.73
44.81
37.21
30.46
24.67
19.53
14.41
8.64
1.82
-5.98
-14.22
-22.21
-29.44
-35.84
-41.89
-48.46
-56.45
-66.66
-79.58
-95.30
-113.24
-131.75
-148.02
-158.47
-159.78
-150.19
-130.40
-103.50
-73.95
-46.00
-22.35
-3.74
10.58
21.94
31.48
39.81
47.23
53.96
60.30
66.34
71.88
76.38
79.26
80.22
79.55
78.06
76.83
76.71
78.09
80.66
83.64
85.97
86.71
85.23
81.39
75.62
68.75
61.74
55.42
50.13
45.60
41.18
36.15
30.19
23.50
16.68
10.34
4.71
-0.54
-6.11
-12.67
-20.50
-29.27
-38.26
-46.70
-54.19
-60.86
-67.36
-74.66
-83.78
-95.61
-110.66
-128.65
-148.13
-166.20
-178.90
-182.36
-174.16
-154.50
-126.36
-94.48
-63.74
-37.54
-17.05
-1.59
10.46
20.55
29.45
37.34
44.14
49.91
54.89
59.28
63.08
66.06
67.92
68.58
68.32
67.84
67.97
69.27
71.79
74.96
77.83
79.49
79.36
77.48
74.32
70.55
66.67
62.82
58.76
54.14
48.70
42.54
36.13
30.09
24.93
20.74
17.11
13.29
8.49
2.16
-5.71
-14.72
-24.24
-33.66
-42.67
-51.37
-60.24
-69.97
-81.33
-94.85
-110.53
-127.32
-142.91
-153.95
-156.90
-149.33
-130.99
-104.26
-73.36
-42.98
-16.69
3.94
19.26
30.72
39.82
47.45
53.87
58.98
62.80
65.55
67.56
69.08
70.16
70.71
70.66
70.15
69.58
69.51
70.46
72.62
75.63
78.64
80.48
80.12
76.99
71.21
63.56
55.10
46.88
39.57
33.30
27.62
21.63
14.39
5.30
-5.58
-17.46
-29.01
-38.97
-46.61
-52.06
-56.30
-60.78
-67.01
-76.25
-89.14
-105.34
-123.11
-139.28
-149.77
-150.82
-140.44
-119.39
-91.12
-60.55
-32.30
-9.30
7.76
19.98
29.18
36.98
44.29
51.34
57.95
63.85
68.75
72.41
74.70
75.60
75.30
74.17
72.71
71.40
70.64
70.60
71.27
72.35
73.34
73.60
72.51
69.57
64.55
57.60
49.24
40.24
31.47
23.58
16.87
11.15
5.85
0.21
-6.42
-14.33
-23.30
-32.70
-41.73
-49.74
-56.58
-62.62
-68.66
-75.73
-84.82
-96.67
-111.50
-128.52
-145.57
-159.16
-165.12
-160.07
-142.85
-115.39
-82.18
-48.74
-19.65
2.82
18.93
30.47
39.49
47.29
54.30
60.45
65.70
70.22
74.22
77.65
80.16
81.31
80.98
79.57
77.91
77.00
77.49
79.37
81.96
84.16
84.82
83.24
79.31
73.51
66.68
59.70
53.15
47.16
41.45
35.50
28.84
21.30
13.15
5.00
-2.49
-8.94
-14.48
-19.81
-25.83
-33.23
-42.05
-51.66
-60.99
-69.08
-75.55
-80.83
-85.94
-92.17
-100.72
-112.36
-127.01
-143.39
-158.74
-169.23
-170.90
-161.17
-140.08
-110.54
-77.43
-45.89
-19.55
0.27
14.30
24.31
32.05
38.63
44.52
49.84
54.68
59.05
62.84
65.76
67.50
67.87
67.01
65.44
63.98
63.35
63.97
65.72
67.98
69.89
70.73
70.11
68.03
64.67
60.25
54.88
48.68
41.95
35.17
28.92
23.57
19.12
15.10
10.68
5.08
-2.17
-10.98
-20.75
-30.61
-39.78
-47.88
-55.07
-61.98
-69.41
-78.15
-88.77
-101.51
-116.19
-131.79
-146.20
-156.25
-158.45
-150.20
-131.00
-103.07
-70.71
-38.90
-11.59
9.34
24.22
34.74
42.78
49.63
55.79
61.23
65.78
69.36
71.89
73.27
73.35
72.06
69.63
66.66
64.01
62.58
62.93
65.02
68.04
70.60
71.19
68.67
62.76
54.09
43.97
33.75
24.35
15.92
7.99
-0.15
-8.88
-18.05
-26.98
-34.86
-41.19
-46.10
-50.39
-55.33
-62.32
-72.48
-86.22
-102.76
-119.89
-134.09
-141.31
-138.26
-123.77
-99.51
-69.62
-39.31
-12.96
7.22
21.45
31.64
39.94
47.76
55.42
62.48
68.43
72.99
76.10
77.75
77.80
76.16
72.99
68.95
65.06
62.40
61.70
63.00
65.59
68.20
69.26
67.44
62.11
53.62
43.27
32.87
24.05
17.59
13.10
9.31
4.63
-1.98
-10.75
-20.98
-31.49
-41.10
-49.18
-55.71
-61.32
-67.13
-74.53
-84.81
-98.65
-115.42
-132.83
-147.06
-153.75
-149.54
-133.46
-107.51
-76.10
-44.39
-16.57
5.29
21.33
33.04
42.12
49.72
56.32
62.06
67.08
71.60
75.68
79.09
81.29
81.79
80.52
78.07
75.49
73.92
74.05
75.81
78.36
80.44
80.87
78.94
74.61
68.40
61.12
53.53
46.06
38.82
31.59
24.08
16.15
8.01
0.13
-6.89
-12.67
-17.26
-21.30
-25.76
-31.64
-39.46
-49.03
-59.34
-69.04
-76.88
-82.31
-85.75
-88.53
-92.50
-99.50
-110.75
-126.29
-144.54
-162.23
-174.93
-178.15
-168.93
-147.06
-115.48
-79.42
-44.62
-15.38
6.54
21.88
32.74
41.28
48.81
55.67
61.77
67.04
71.66
75.92
79.85
83.20
85.49
86.33
85.67
83.97
82.05
80.79
80.86
82.36
84.75
86.97
87.84
86.39
82.28
75.80
67.83
59.47
51.72
45.16
39.91
35.56
31.40
26.72
21.07
14.52
7.56
0.89
-4.95
-9.92
-14.55
-19.76
-26.45
-35.06
-45.35
-56.44
-67.19
-76.57
-84.08
-89.91
-94.83
-99.98
-106.65
-115.94
-128.35
-143.29
-158.52
-170.29
-174.06
-166.06
-145.00
-112.97
-74.94
-37.17
-4.87
19.34
35.72
46.41
53.93
59.94
65.00
68.95
71.68
73.53
75.16
77.17
79.66
82.20
84.04
84.55
83.62
81.77
79.89
78.83
78.84
79.33
79.00
76.35
70.39
61.10
49.54
37.42
26.39
17.40
10.40
4.44
-1.80
-9.37
-18.56
-28.81
-38.95
-47.79
-54.64
-59.61
-63.61
-68.03
-74.37
-83.87
-97.11
-113.65
-131.60
-147.57
-157.21
-156.58
-143.57
-119.14
-87.18
-53.26
-22.65
1.41
18.39
29.85
38.11
45.02
51.36
57.01
61.59
64.92
67.16
68.56
69.31
69.36
68.65
67.28
65.66
64.38
63.92
64.38
65.31
65.89
65.20
62.64
58.07
51.78
44.26
35.85
26.70
16.78
6.17
-4.82
-15.63
-25.66
-34.51
-42.16
-48.99
-55.76
-63.42
-73.01
-85.35
-100.69
-118.08
-135.18
-148.36
-153.80
-148.83
-133.06
-108.69
-79.84
-51.03
-25.72
-5.51
9.80
21.47
30.89
38.95
45.96
51.84
56.38
59.52
61.34
62.09
62.06
61.52
60.70
59.72
58.64
57.52
56.43
55.43
54.50
53.57
52.40
50.60
47.72
43.28
36.94
28.72
19.06
8.83
-0.97
-9.59
-16.86
-23.30
-29.84
-37.48
-46.99
-58.73
-72.60
-87.82
-102.83
-115.23
-122.19
-121.23
-111.20
-92.92
-69.06
-43.28
-19.04
1.43
17.51
29.85
39.63
47.91
55.19
61.44
66.34
69.62
71.18
71.25
70.26
68.79
67.35
66.38
66.14
66.72
67.94
69.32
70.13
69.59
67.10
62.55
56.34
49.20
41.81
34.54
27.33
19.84
11.83
3.29
-5.49
-14.08
-22.15
-29.65
-36.87
-44.35
-52.80
-63.03
-75.72
-90.95
-107.78
-123.93
-136.09
-140.78
-135.69
-120.63
-97.72
-70.70
-43.58
-19.36
0.60
16.45
29.19
39.84
49.04
56.97
63.61
68.92
72.98
75.90
77.83
78.82
78.89
78.15
76.78
75.21
73.97
73.59
74.26
75.66
76.98
77.13
75.14
70.57
63.66
55.33
46.78
39.06
32.66
27.36
22.36
16.62
9.32
0.23
-10.24
-21.15
-31.39
-40.08
-46.83
-52.01
-56.58
-62.02
-69.92
-81.55
-97.23
-115.70
-133.95
-147.85
-153.30
-147.74
-131.19
-106.28
-77.30
-48.65
-23.47
-3.11
12.69
24.96
34.78
42.93
49.87
55.98
61.55
66.74
71.44
75.29
77.82
78.78
78.27
76.81
75.24
74.38
74.69
76.14
78.14
79.75
80.00
78.29
74.59
69.39
63.51
57.72
52.49
47.83
43.37
38.64
33.26
27.18
20.68
14.27
8.46
3.57
-0.47
-4.15
-8.33
-13.84
-21.18
-30.19
-40.11
-49.87
-58.60
-66.09
-72.86
-79.97
-88.67
-100.01
-114.45
-131.51
-149.43
-165.12
-174.74
-174.82
-163.60
-141.92
-113.12
-81.87
-52.51
-27.70
-8.10
7.14
19.27
29.28
37.56
44.26
49.54
53.79
57.39
60.51
63.06
64.87
65.89
66.35
66.77
67.74
69.70
72.69
76.28
79.75
82.29
83.25
82.32
79.55
75.29
70.02
64.23
58.35
52.66
47.26
42.17
37.28
32.40
27.29
21.65
15.20
7.86
-0.21
-8.55
-16.56
-23.79
-30.18
-36.17
-42.61
-50.47
-60.59
-73.51
-89.24
-107.01
-124.97
-140.13
-148.84
-147.84
-135.66
-113.36
-84.45
-53.70
-25.54
-2.68
14.33
26.57
35.76
43.35
50.10
56.11
61.21
65.21
68.00
69.58
70.04
69.53
68.24
66.45
64.50
62.81
61.80
61.83
63.00
64.99
67.05
68.19
67.46
64.28
58.65
51.15
42.72
34.44
27.20
21.42
16.92
12.95
8.43
2.36
-5.81
-15.87
-26.95
-37.82
-47.33
-54.88
-60.63
-65.49
-70.82
-78.15
-88.72
-103.05
-120.35
-138.25
-152.92
-160.02
-156.14
-140.23
-114.15
-82.15
-49.40
-20.23
3.07
20.38
32.97
42.38
49.69
55.32
59.35
61.95
63.56
64.71
65.75
66.71
67.27
67.06
65.89
63.96
61.80
60.08
59.27
59.48
60.37
61.30
61.50
60.27
57.16
52.07
45.34
37.65
29.90
22.92
17.12
12.23
7.46
1.76
-5.64
-14.82
-25.03
-35.04
-43.64
-50.24
-55.06
-59.14
-63.82
-70.41
-79.80
-92.38
-107.97
-125.47
-142.60
-155.95
-161.65
-156.73
-140.43
-114.83
-84.30
-53.97
-27.82
-7.64
7.04
17.92
26.74
34.42
41.11
46.54
50.59
53.48
55.59
57.19
58.40
59.17
59.43
59.23
58.81
58.47
58.56
59.33
60.75
62.50
63.89
64.08
62.34
58.30
52.08
44.24
35.63
27.12
19.41
12.78
7.07
1.72
-4.02
-10.68
-18.29
-26.20
-33.40
-38.99
-42.62
-44.77
-46.61
-49.65
-55.20
-64.14
-76.68
-92.17
-108.86
-123.95
-134.00
-135.84
-127.73
-110.08
-85.46
-57.77
-30.91
-7.64
10.97
25.26
36.35
45.33
52.89
59.16
64.03
67.42
69.35
70.01
69.61
68.39
66.59
64.58
62.94
62.39
63.46
66.22
69.98
73.44
75.04
73.61
68.78
61.07
51.66
41.89
32.79
24.79
17.69
10.82
3.37
-5.20
-14.84
-24.90
-34.37
-42.36
-48.49
-53.26
-57.83
-63.81
-72.67
-85.24
-101.13
-118.36
-133.46
-142.27
-141.27
-128.92
-106.53
-77.87
-47.75
-20.43
1.69
18.31
30.50
39.70
46.97
52.82
57.46
61.09
63.97
66.26
67.93
68.73
68.47
67.17
65.21
63.20
61.83
61.54
62.30
63.63
64.64
64.40
62.33
58.41
53.15
47.32
41.51
35.87
30.02
23.36
15.35
5.88
-4.70
-15.64
-26.06
-35.26
-42.97
-49.46
-55.59
-62.59
-71.83
-84.25
-99.75
-116.69
-131.88
-141.28
-141.20
-129.81
-107.99
-79.20
-48.27
-19.70
3.74
21.41
34.22
43.62
50.64
55.71
59.03
60.96
62.21
63.53
65.27
67.16
68.51
68.63
67.31
64.98
62.51
60.83
60.48
61.41
62.96
64.10
63.71
60.96
55.60
48.01
39.08
29.99
21.77
14.95
9.46
4.67
-0.37
-6.53
-14.25
-23.39
-33.21
-42.71
-50.97
-57.53
-62.60
-66.93
-71.61
-77.80
-86.43
-97.84
-111.38
-125.17
-136.25
-141.28
-137.68
-124.67
-103.70
-77.98
-51.33
-26.84
-6.18
10.50
23.89
34.84
43.89
51.17
56.69
60.50
62.85
64.03
64.43
64.39
64.16
63.88
63.61
63.36
63.16
63.10
63.32
63.90
64.74
65.54
65.84
65.18
63.22
59.79
55.05
49.38
43.38
37.64
32.50
27.86
23.21
17.82
11.14
3.13
-5.65
-14.27
-21.87
-28.04
-33.04
-37.70
-43.22
-50.85
-61.68
-76.31
-94.30
-113.82
-131.55
-143.31
-145.27
-135.50
-114.83
-86.75
-56.18
-27.75
-4.31
13.52
26.81
37.23
46.06
53.73
60.04
64.67
67.52
68.86
69.09
68.58
67.58
66.21
64.67
63.32
62.52
62.61
63.64
65.33
67.11
68.26
68.14
66.28
62.56
57.20
50.68
43.65
36.73
30.37
24.78
19.91
15.49
11.17
6.46
0.89
-5.96
-14.19
-23.46
-32.95
-41.70
-48.97
-54.69
-59.50
-64.59
-71.29
-80.64
-93.16
-108.58
-125.58
-141.64
-153.25
-156.83
-149.90
-132.25
-106.23
-76.05
-46.33
-20.49
-0.06
15.27
26.76
35.73
43.09
49.35
54.84
59.85
64.52
68.73
72.01
73.83
73.91
72.46
70.20
68.12
67.17
67.77
69.69
72.15
74.05
74.41
72.76
69.21
64.40
59.18
54.21
49.85
46.01
42.32
38.29
33.54
27.88
21.44
14.58
7.70
1.08
-5.32
-11.88
-19.00
-26.94
-35.53
-44.25
-52.49
-59.81
-66.21
-72.13
-78.32
-85.70
-95.14
-107.30
-122.14
-138.46
-153.64
-164.04
-166.06
-157.56
-138.83
-112.71
-83.51
-55.47
-31.46
-12.40
2.35
14.03
23.69
31.86
38.65
44.07
48.26
51.46
53.87
55.52
56.43
56.65
56.47
56.32
56.70
57.92
60.01
62.58
65.07
66.84
67.40
66.52
64.21
60.67
56.23
51.21
45.97
40.79
35.94
31.58
27.72
24.20
20.65
16.51
11.23
4.47
-3.70
-12.69
-21.64
-29.71
-36.49
-42.23
-47.77
-54.27
-62.86
-74.24
-88.46
-104.55
-120.36
-132.81
-138.50
-134.82
-120.94
-98.30
-70.28
-41.04
-14.23
7.96
25.00
37.53
46.67
53.33
58.14
61.45
63.55
64.68
64.99
64.48
63.05
60.71
57.66
54.36
51.49
49.73
49.59
51.10
53.81
56.75
58.69
58.54
55.71
50.34
43.27
35.63
28.51
22.44
17.22
12.07
6.04
-1.50
-10.52
-20.27
-29.63
-37.59
-43.75
-48.49
-52.93
-58.53
-66.69
-78.26
-93.20
-110.13
-126.30
-138.01
-141.59
-134.65
-117.14
-91.62
-62.40
-34.14
-10.21
8.02
21.07
30.47
37.73
43.76
48.88
53.11
56.51
59.24
61.41
62.91
63.50
62.98
61.49
59.53
57.90
57.39
58.34
60.51
63.07
64.88
64.90
62.52
57.82
51.40
44.17
37.02
30.45
24.44
18.53
12.07
4.63
-3.73
-12.44
-20.66
-27.68
-33.36
-38.20
-43.21
-49.56
-58.27
-69.91
-84.40
-100.69
-116.58
-128.82
-133.95
-129.39
-114.64
-91.63
-64.23
-36.79
-12.70
6.51
21.05
32.12
40.88
48.05
53.82
58.20
61.30
63.36
64.61
65.10
64.74
63.41
61.20
58.48
55.80
53.81
52.98
53.38
54.60
55.82
56.05
54.48
50.72
44.97
37.90
30.44
23.46
17.56
12.84
8.84
4.67
-0.61
-7.63
-16.35
-25.98
-35.33
-43.35
-49.58
-54.39
-58.79
-64.06
-71.41
-81.66
-94.91
-110.17
-125.17
-136.58
-140.90
-135.64
-120.41
-97.27
-69.93
-42.44
-17.91
2.23
18.00
30.10
39.22
45.75
49.90
52.02
52.77
52.88
53.03
53.44
53.99
54.34
54.19
53.51
52.58
51.90
51.92
52.89
54.61
56.46
57.59
57.19
54.82
50.54
44.90
38.73
32.81
27.52
22.74
17.94
12.42
5.73
-2.08
-10.45
-18.51
-25.44
-30.80
-34.84
-38.44
-42.97
-49.93
-60.45
-74.78
-91.81
-108.91
-122.42
-128.57
-124.80
-110.74
-88.49
-61.89
-35.23
-11.86
6.61
20.26
30.19
37.71
43.78
48.82
52.94
56.20
58.68
60.51
61.74
62.38
62.42
61.91
61.04
60.16
59.68
59.93
60.99
62.58
64.17
65.10
64.85
63.15
60.03
55.70
50.42
44.49
38.20
31.88
25.83
20.25
15.10
10.08
4.67
-1.66
-9.21
-17.83
-26.94
-35.63
-43.08
-48.90
-53.36
-57.38
-62.25
-69.21
-79.16
-92.33
-108.03
-124.41
-138.46
-146.58
-145.60
-133.95
-112.50
-84.48
-54.41
-26.54
-3.62
13.65
26.12
35.31
42.48
48.33
53.14
57.00
60.05
62.47
64.29
65.38
65.58
64.80
63.27
61.45
59.99
59.49
60.22
61.99
64.14
65.78
66.07
64.60
61.45
57.09
52.07
46.77
41.32
35.67
29.75
23.66
17.65
11.96
6.72
1.79
-3.17
-8.63
-14.99
-22.35
-30.49
-38.88
-46.81
-53.75
-59.59
-64.72
-70.09
-76.96
-86.58
-99.73
-116.18
-134.25
-150.72
-161.51
-162.89
-152.90
-132.34
-104.54
-74.30
-46.05
-22.52
-4.34
9.40
20.12
28.86
36.07
41.81
46.23
49.66
52.50
54.93
56.84
57.94
58.03
57.23
56.03
55.05
54.88
55.85
57.91
60.68
63.56
65.82
66.78
65.94
63.08
58.35
52.19
45.28
38.40
32.15
26.84
22.38
18.32
14.00
8.84
2.55
-4.68
-12.13
-18.89
-24.18
-27.79
-30.22
-32.65
-36.52
-43.18
-53.52
-67.68
-84.82
-102.88
-118.70
-128.53
-129.11
-118.78
-98.28
-70.72
-40.61
-12.39
10.89
28.10
39.85
47.67
53.08
57.15
60.38
62.83
64.40
65.00
64.67
63.60
62.14
60.72
59.67
59.25
59.62
60.83
62.76
65.08
67.15
68.25
67.75
65.41
61.48
56.59
51.38
46.31
41.45
36.64
31.64
26.29
20.66
14.93
9.37
4.17
-0.68
-5.41
-10.45
-16.24
-23.04
-30.68
-38.55
-45.91
-52.21
-57.54
-62.67
-68.97
-77.85
-90.24
-106.01
-123.49
-139.53
-150.09
-151.44
-141.54
-120.86
-92.46
-60.86
-30.56
-4.70
15.51
30.42
41.18
48.95
54.52
58.45
61.27
63.47
65.43
67.17
68.38
68.64
67.67
65.62
63.05
60.80
59.73
60.36
62.55
65.57
68.25
69.42
68.40
65.22
60.55
55.32
50.27
45.65
41.17
36.23
30.34
23.43
15.86
8.30
1.40
-4.53
-9.67
-14.63
-20.14
-26.79
-34.69
-43.45
-52.36
-60.70
-67.96
-74.08
-79.46
-84.88
-91.41
-100.15
-111.86
-126.34
-141.84
-155.04
-161.69
-157.97
-142.11
-115.31
-81.56
-46.28
-14.47
10.79
28.90
41.14
49.44
55.33
59.53
62.13
63.17
62.98
62.17
61.30
60.62
59.99
59.10
57.77
56.18
54.84
54.26
54.69
55.91
57.41
58.51
58.76
57.96
56.11
53.22
49.24
44.08
37.80
30.65
23.15
15.88
9.25
3.35
-2.10
-7.63
-13.80
-20.87
-28.69
-36.68
-44.08
-50.35
-55.49
-60.05
-64.99
-71.33
-79.83
-90.82
-104.07
-118.43
-131.70
-140.63
-141.67
-132.20
-111.82
-82.89
-49.94
-18.14
8.57
28.53
42.37
52.01
59.28
65.15
69.58
72.11
72.48
70.95
68.23
65.14
62.32
60.03
58.27
57.04
56.44
56.79
58.48
61.58
65.60
69.42
71.57
70.68
66.08
58.02
47.63
36.50
26.10
17.30
10.06
3.52
-3.55
-12.12
-22.45
-33.86
-44.98
-54.35
-61.10
-65.35
-68.14
-71.10
-75.90
-83.82
-95.46
-110.42
-126.91
-141.68
-150.46
-149.19
-135.55
-110.19
-76.90
-41.37
-9.17
16.09
33.62
44.95
52.54
58.40
63.45
67.69
70.78
72.66
73.63
74.14
74.46
74.46
73.79
72.20
69.80
67.14
65.06
64.27
65.02
66.96
69.16
70.38
69.47
65.74
59.08
50.11
40.00
30.08
21.46
14.60
9.07
3.83
-2.39
-10.40
-20.21
-31.00
-41.56
-50.79
-58.16
-63.93
-68.90
-74.25
-81.16
-90.65
-103.19
-118.37
-134.39
-148.09
-155.39
-152.61
-137.90
-112.31
-79.61
-45.13
-13.86
11.09
29.09
41.47
50.26
57.01
62.35
66.20
68.45
69.30
69.38
69.32
69.44
69.66
69.72
69.46
69.03
68.74
68.86
69.41
70.15
70.67
70.59
69.68
67.87
65.22
61.83
57.75
52.90
47.10
40.10
31.84
22.60
13.02
3.99
-3.83
-10.31
-15.94
-21.62
-28.16
-35.80
-44.24
-52.75
-60.67
-67.64
-73.86
-79.92
-86.72
-95.30
-106.48
-120.60
-136.81
-152.79
-164.93
-169.20
-162.54
-144.21
-116.36
-83.37
-50.40
-21.61
0.96
17.49
29.51
38.71
46.03
51.60
55.26
57.09
57.73
58.12
58.96
60.44
62.18
63.68
64.73
65.63
66.93
69.05
71.92
74.98
77.40
78.49
77.97
75.94
72.73
68.65
63.82
58.17
51.43
43.43
34.17
24.06
13.89
4.70
-2.65
-7.88
-11.51
-14.70
-18.71
-24.33
-31.58
-39.79
-47.99
-55.44
-61.95
-67.88
-74.00
-81.20
-90.29
-101.76
-115.35
-129.69
-142.12
-149.00
-146.76
-133.29
-109.02
-77.08
-42.34
-9.82
16.96
36.81
50.54
59.98
66.73
71.67
74.97
76.63
76.88
76.29
75.45
74.70
74.04
73.29
72.41
71.72
71.65
72.58
74.52
77.05
79.42
80.83
80.68
78.68
74.88
69.59
63.25
56.27
48.87
41.11
32.95
24.42
15.77
7.51
0.18
-5.97
-11.12
-15.95
-21.33
-27.85
-35.67
-44.34
-53.06
-61.01
-67.73
-73.25
-78.19
-83.61
-90.73
-100.64
-113.70
-128.96
-143.86
-154.45
-156.42
-146.66
-124.77
-93.47
-57.85
-23.59
5.00
26.20
40.73
50.70
58.08
63.97
68.53
71.67
73.56
74.85
76.23
77.95
79.64
80.59
80.19
78.44
75.94
73.68
72.49
72.69
73.91
75.30
75.86
74.78
71.75
66.96
61.02
54.69
48.54
42.75
37.15
31.31
24.89
17.88
10.63
3.74
-2.28
-7.25
-11.58
-16.11
-21.89
-29.68
-39.55
-50.75
-61.91
-71.56
-78.80
-83.73
-87.47
-91.78
-98.47
-108.73
-122.68
-139.00
-154.83
-166.24
-169.07
-160.35
-139.60
-109.31
-74.39
-40.52
-12.19
8.60
22.40
31.41
38.00
43.74
49.09
53.86
57.76
60.74
62.98
64.67
65.79
66.20
65.79
64.65
63.19
62.03
61.82
62.89
65.13
67.87
70.12
70.87
69.52
66.08
61.11
55.41
49.70
44.36
39.35
34.44
29.48
24.48
19.66
15.28
11.34
7.48
2.99
-2.89
-10.68
-20.30
-31.02
-41.71
-51.33
-59.31
-65.85
-71.82
-78.40
-86.71
-97.52
-111.04
-126.70
-142.74
-156.10
-162.73
-158.75
-141.96
-113.25
-76.76
-38.72
-5.25
19.69
35.39
43.94
48.64
52.37
56.57
61.35
66.16
70.55
74.44
77.95
81.05
83.44
84.72
84.66
83.54
82.08
81.22
81.52
82.91
84.53
85.14
83.59
79.36
72.76
64.65
56.05
47.61
39.44
31.22
22.61
13.50
4.23
-4.67
-12.71
-19.79
-26.23
-32.67
-39.77
-47.92
-57.03
-66.50
-75.47
-83.15
-89.15
-93.81
-98.01
-103.01
-110.05
-119.89
-132.44
-146.36
-158.91
-166.26
-164.53
-151.17
-126.17
-92.53
-55.45
-20.56
7.87
28.12
41.01
48.86
54.13
58.50
62.61
66.45
69.86
72.79
75.33
77.50
79.14
79.98
79.85
78.84
77.45
76.45
76.62
78.39
81.63
85.55
88.98
90.72
90.02
86.76
81.49
75.15
68.72
62.84
57.68
52.85
47.60
41.16
33.00
23.15
12.21
1.17
-8.84
-17.06
-23.34
-28.23
-32.71
-37.85
-44.27
-51.83
-59.78
-67.02
-72.77
-76.89
-80.08
-83.62
-88.93
-97.11
-108.51
-122.43
-136.78
-148.23
-152.75
-146.74
-128.46
-99.14
-62.92
-25.75
6.62
30.53
45.30
52.74
55.82
57.14
58.14
59.16
60.05
60.76
61.55
62.64
63.98
65.16
65.61
65.00
63.54
61.89
60.89
61.14
62.63
64.74
66.35
66.20
63.31
57.28
48.45
37.82
26.73
16.52
8.06
1.56
-3.46
-7.87
-12.50
-17.73
-23.31
-28.45
-32.26
-34.28
-34.82
-34.97
-36.15
-39.55
-45.53
-53.50
-62.17
-70.20
-76.82
-82.08
-86.85
-92.42
-100.04
-110.49
-123.71
-138.42
-152.00
-160.78
-160.86
-149.52
-126.44
-94.24
-57.84
-22.83
6.44
28.10
42.84
52.87
60.49
67.01
72.57
76.67
78.88
79.34
78.64
77.36
75.86
74.10
71.98
69.56
67.28
65.79
65.62
66.93
69.33
72.06
74.21
75.09
74.34
71.89
67.87
62.52
56.10
48.98
41.57
34.33
27.58
21.42
15.63
9.71
3.13
-4.47
-12.98
-21.84
-30.27
-37.67
-43.95
-49.71
-56.01
-64.00
-74.56
-88.08
-104.23
-121.73
-138.16
-150.09
-153.77
-146.34
-127.12
-98.26
-64.33
-30.79
-2.21
19.16
33.57
42.97
49.71
55.44
60.72
65.36
68.92
71.22
72.38
72.67
72.40
71.71
70.69
69.46
68.32
67.62
67.66
68.52
69.96
71.44
72.27
71.85
69.75
65.78
59.98
52.58
44.04
34.96
25.99
17.66
10.24
3.63
-2.57
-8.85
-15.65
-23.15
-31.18
-39.29
-46.87
-53.41
-58.71
-63.06
-67.21
-72.22
-79.20
-89.04
-102.10
-117.76
-134.09
-147.75
-154.62
-151.13
-135.70
-109.71
-77.31
-43.98
-14.59
8.21
24.33
35.47
43.70
50.39
55.90
60.08
62.90
64.71
66.20
67.86
69.72
71.41
72.46
72.62
72.12
71.54
71.60
72.72
74.78
77.06
78.45
77.91
74.93
69.78
63.39
56.94
51.27
46.54
42.21
37.43
31.50
24.36
16.58
9.15
2.95
-1.63
-4.94
-7.90
-11.63
-17.00
-24.24
-32.94
-42.23
-51.19
-59.28
-66.54
-73.58
-81.33
-90.81
-102.77
-117.39
-133.77
-149.65
-161.49
-165.29
-157.96
-138.67
-109.56
-75.21
-41.11
-11.77
10.55
26.08
36.60
44.16
50.16
55.07
58.82
61.37
62.99
64.21
65.48
66.91
68.31
69.33
69.79
69.79
69.79
70.31
71.68
73.83
76.20
77.95
78.24
76.59
73.00
68.02
62.46
57.06
52.27
48.06
44.01
39.55
34.17
27.73
20.48
12.96
5.86
-0.25
-5.14
-9.10
-12.85
-17.39
-23.55
-31.62
-41.08
-50.81
-59.50
-66.24
-70.98
-74.54
-78.30
-83.74
-92.01
-103.67
-118.35
-134.49
-149.29
-159.00
-159.94
-149.81
-128.76
-99.64
-67.11
-36.04
-9.93
9.84
23.80
33.47
40.44
45.80
50.16
53.85
57.07
59.91
62.23
63.72
64.10
63.29
61.62
59.72
58.32
58.03
59.15
61.57
64.73
67.79
69.79
69.91
67.83
63.73
58.34
52.52
47.03
42.18
37.87
33.71
29.34
24.63
19.76
15.06
10.85
7.15
3.64
-0.26
-5.16
-11.43
-19.00
-27.32
-35.56
-42.97
-49.13
-54.21
-58.97
-64.50
-72.01
-82.35
-95.65
-110.79
-125.29
-135.57
-138.03
-130.25
-112.08
-85.98
-56.25
-27.56
-3.38
14.86
27.68
36.69
43.46
48.89
53.11
55.96
57.38
57.73
57.53
57.23
56.98
56.65
56.04
55.17
54.44
54.45
55.76
58.46
62.04
65.48
67.54
67.20
64.01
58.25
50.75
42.62
34.91
28.26
22.74
17.87
12.86
6.92
-0.44
-9.22
-18.84
-28.41
-36.98
-43.92
-49.21
-53.49
-57.85
-63.62
-71.93
-83.40
-97.82
-113.84
-128.90
-139.56
-142.36
-134.98
-117.19
-91.23
-61.17
-31.62
-6.30
12.92
26.08
34.49
39.86
43.59
46.57
49.27
51.96
54.79
57.69
60.33
62.25
63.00
62.50
61.08
59.41
58.27
58.16
59.17
60.94
62.88
64.35
64.84
64.09
62.03
58.73
54.37
49.16
43.38
37.36
31.43
25.95
21.18
17.16
13.68
10.22
6.15
0.88
-5.85
-13.87
-22.58
-31.26
-39.24
-46.21
-52.39
-58.45
-65.46
-74.59
-86.83
-102.43
-120.38
-138.10
-151.78
-157.38
-152.05
-135.33
-109.53
-78.99
-48.62
-22.26
-1.77
12.98
23.29
30.71
36.46
41.27
45.63
49.95
54.53
59.35
64.01
67.77
69.92
70.13
68.64
66.29
64.18
63.31
64.13
66.40
69.22
71.40
71.96
70.47
67.23
63.06
58.91
55.41
52.66
50.30
47.73
44.55
40.74
36.73
33.10
30.29
28.36
26.90
25.23
22.71
18.96
14.05
8.37
2.46
-3.28
-8.81
-14.42
-20.56
-27.60
-35.56
-44.10
-52.60
-60.45
-67.32
-73.29
-78.85
-84.72
-91.69
-100.51
-111.72
-125.33
-140.25
-154.03
-162.99
-163.28
-152.29
-129.99
-99.23
-64.98
-32.49
-5.66
14.00
27.14
35.55
41.07
44.96
47.83
50.11
52.30
54.95
58.36
62.29
65.98
68.56
69.38
68.50
66.67
65.07
64.77
66.25
69.22
72.73
75.59
76.80
75.89
72.96
68.54
63.34
58.03
53.06
48.58
44.51
40.65
36.87
33.14
29.51
25.94
22.23
18.05
13.01
6.96
0.06
-7.22
-14.20
-20.26
-25.06
-28.71
-31.78
-35.09
-39.51
-45.52
-53.01
-61.30
-69.36
-76.25
-81.57
-85.63
-89.36
-94.03
-100.89
-110.78
-123.64
-138.13
-151.54
-160.14
-160.29
-149.70
-128.53
-99.53
-67.26
-36.49
-10.76
8.47
21.67
30.39
36.32
40.69
44.10
46.80
48.96
50.79
52.46
54.00
55.28
56.11
56.39
56.25
56.12
56.62
58.26
61.26
65.31
69.56
72.89
74.30
73.24
69.88
65.02
59.85
55.46
52.49
50.88
49.93
48.56
45.80
41.19
34.97
27.96
21.25
15.65
11.35
7.74
3.68
-2.01
-10.00
-20.16
-31.55
-42.88
-52.99
-61.29
-67.97
-73.77
-79.74
-86.93
-96.17
-107.85
-121.47
-135.26
-146.08
-150.02
-143.73
-125.93
-98.25
-64.96
-31.48
-2.49
19.53
34.57
44.27
50.64
55.17
58.55
61.07
63.01
64.79
66.73
68.73
70.30
70.85
70.05
68.15
65.90
64.24
63.89
65.06
67.36
69.93
71.75
72.00
70.30
66.83
62.27
57.42
52.92
48.97
45.39
41.75
37.70
33.16
28.33
23.44
18.53
13.33
7.36
0.18
-8.30
-17.74
-27.41
-36.52
-44.56
-51.49
-57.90
-64.73
-73.02
-83.68
-97.15
-113.13
-130.28
-146.10
-157.12
-159.83
-151.88
-133.16
-106.08
-74.92
-44.39
-18.11
2.29
17.08
27.64
35.55
41.91
47.30
51.96
56.12
59.99
63.63
66.89
69.37
70.76
70.94
70.22
69.24
68.74
69.28
71.00
73.54
76.14
77.92
78.09
76.25
72.45
67.22
61.38
55.80
51.16
47.72
45.27
43.25
40.96
37.81
33.53
28.24
22.33
16.34
10.77
5.84
1.37
-3.21
-8.65
-15.56
-24.09
-33.78
-43.67
-52.72
-60.28
-66.31
-71.48
-76.88
-83.70
-92.95
-105.15
-120.03
-136.11
-150.64
-160.00
-160.72
-150.80
-130.70
-103.34
-73.14
-44.47
-20.25
-1.48
12.45
22.81
30.74
36.95
41.89
45.98
49.73
53.54
57.50
61.27
64.26
65.98
66.27
65.45
64.21
63.36
63.50
64.76
66.78
68.83
70.04
69.91
68.39
65.90
63.05
60.25
57.51
54.53
50.94
46.58
41.64
36.55
31.84
27.85
24.63
21.96
19.41
16.49
12.81
8.25
3.02
-2.38
-7.41
-11.72
-15.43
-19.08
-23.43
-29.11
-36.28
-44.55
-53.17
-61.35
-68.60
-74.97
-81.02
-87.71
-96.12
-107.15
-121.12
-137.34
-153.78
-167.18
-173.82
-170.72
-156.77
-133.42
-104.23
-73.69
-45.69
-22.48
-4.52
9.01
19.31
27.36
33.78
39.02
43.47
47.44
51.08
54.15
56.22
56.93
56.23
54.52
52.51
51.03
50.70
51.70
53.81
56.46
58.93
60.59
60.99
59.97
57.63
54.29
50.49
46.83
43.87
41.91
40.85
40.14
39.06
36.97
33.60
29.16
24.19
19.29
14.82
10.71
6.55
1.78
-4.10
-11.22
-19.28
-27.61
-35.39
-41.93
-47.02
-51.10
-55.18
-60.57
-68.56
-79.89
-94.28
-110.23
-125.03
-135.33
-138.05
-131.38
-115.52
-92.65
-66.33
-40.30
-17.50
0.54
13.75
22.98
29.53
34.67
39.42
44.51
50.33
56.79
63.35
69.11
73.17
74.97
74.59
72.72
70.44
68.80
68.42
69.39
71.31
73.50
75.26
76.09
75.70
74.05
71.31
67.73
63.67
59.45
55.29
51.39
47.79
44.49
41.38
38.40
35.47
32.52
29.40
25.88
21.69
16.67
10.89
4.73
-1.27
-6.77
-11.77
-16.78
-22.56
-29.72
-38.34
-47.83
-57.22
-65.55
-72.36
-77.85
-82.81
-88.38
-95.71
-105.67
-118.36
-132.82
-146.75
-156.88
-159.78
-153.09
-136.55
-112.21
-83.87
-55.71
-30.99
-11.27
3.54
14.49
22.80
29.42
34.99
40.00
44.97
50.27
55.94
61.53
66.24
69.33
70.42
69.78
68.29
67.06
67.03
68.55
71.25
74.13
76.05
76.13
74.10
70.38
65.82
61.39
57.71
54.95
52.82
50.79
48.35
45.23
41.46
37.34
33.25
29.50
26.24
23.34
20.55
17.48
13.87
9.67
5.08
0.46
-3.86
-7.77
-11.48
-15.48
-20.27
-26.08
-32.74
-39.72
-46.35
-52.13
-56.96
-61.18
-65.50
-70.81
-78.09
-88.11
-101.06
-116.08
-131.05
-142.70
-147.55
-143.06
-128.69
-106.21
-79.12
-51.48
-26.66
-6.51
8.63
19.44
27.03
32.43
36.49
39.92
43.27
46.89
50.80
54.69
58.00
60.22
61.03
60.55
59.34
58.21
57.91
58.80
60.68
62.91
64.66
65.33
64.67
62.84
60.18
56.96
53.31
49.24
44.79
40.14
35.59
31.44
27.90
24.94
22.35
19.77
16.84
13.28
9.05
4.28
-0.68
-5.48
-9.90
-13.96
-17.95
-22.26
-27.23
-32.94
-39.19
-45.57
-51.62
-57.08
-62.02
-66.90
-72.49
-79.75
-89.51
-102.10
-116.92
-132.14
-144.83
-151.59
-149.66
-137.98
-117.70
-91.88
-64.52
-39.16
-18.03
-1.71
10.44
19.51
26.54
32.22
37.02
41.27
45.21
48.88
52.09
54.44
55.59
55.52
54.57
53.48
53.02
53.77
55.81
58.66
61.50
63.38
63.62
61.98
58.72
54.37
49.56
44.79
40.35
36.30
32.58
29.03
25.45
21.75
17.96
14.22
10.76
7.69
5.01
2.39
-0.58
-4.26
-8.74
-13.74
-18.75
-23.28
-27.23
-31.10
-35.84
-42.61
-52.33
-65.37
-81.18
-98.22
-114.05
-125.61
-129.98
-125.26
-111.32
-90.05
-64.84
-39.58
-17.36
0.22
13.19
22.57
29.64
35.36
40.22
44.42
48.07
51.18
53.65
55.22
55.64
54.79
52.96
50.75
48.94
48.21
48.91
50.98
53.95
57.01
59.25
59.80
58.10
54.08
48.22
41.36
34.50
28.45
23.51
19.41
15.44
10.71
4.57
-3.12
-11.83
-20.61
-28.41
-34.48
-38.69
-41.63
-44.35
-48.12
-54.09
-62.94
-74.61
-88.01
-100.99
-110.75
-114.47
-110.33
-98.23
-79.85
-58.23
-36.69
-17.85
-3.04
7.78
15.54
21.50
26.80
32.17
37.87
43.78
49.52
54.61
58.64
61.39
62.84
63.16
62.72
62.00
61.53
61.80
63.03
65.05
67.27
68.88
69.18
67.77
64.78
60.71
56.21
51.84
47.93
44.56
41.61
38.81
35.87
32.47
28.43
23.76
18.69
13.63
8.99
4.99
1.57
-1.66
-5.23
-9.68
-15.33
-22.14
-29.74
-37.52
-44.83
-51.21
-56.56
-61.22
-65.95
-71.73
-79.52
-89.92
-102.71
-116.52
-128.87
-136.64
-137.02
-128.57
-111.88
-89.45
-64.84
-41.46
-21.59
-5.98
5.82
14.83
22.02
28.04
33.25
37.96
42.41
46.75
50.90
54.56
57.31
58.84
59.15
58.61
57.82
57.44
57.83
58.94
60.34
61.42
61.67
60.89
59.26
57.14
54.91
52.76
50.67
48.42
45.78
42.59
38.90
34.95
31.07
27.62
24.77
22.49
20.52
18.46
15.94
12.71
8.74
4.15
-0.74
-5.65
-10.39
-14.94
-19.49
-24.35
-29.78
-35.79
-42.18
-48.52
-54.41
-59.69
-64.53
-69.46
-75.22
-82.56
-92.03
-103.67
-116.67
-129.20
-138.60
-141.99
-137.29
-124.01
-103.63
-79.11
-53.97
-31.16
-12.43
1.84
12.21
19.69
25.31
29.93
34.16
38.39
42.70
46.78
50.12
52.18
52.67
51.70
49.82
47.80
46.41
46.16
47.18
49.24
51.82
54.29
56.08
56.73
56.01
53.87
50.47
46.21
41.66
37.42
33.91
31.23
29.08
26.92
24.24
20.82
16.83
12.73
9.02
5.94
3.37
0.77
-2.49
-6.93
-12.66
-19.31
-26.23
-32.64
-38.05
-42.45
-46.27
-50.29
-55.42
-62.48
-71.97
-83.82
-97.00
-109.46
-118.41
-120.99
-115.34
-101.29
-80.69
-56.74
-32.97
-12.18
4.21
16.12
24.43
30.36
35.05
39.27
43.39
47.39
50.99
53.82
55.59
56.28
56.04
55.16
53.98
52.81
51.95
51.66
52.10
53.22
54.68
55.91
56.24
55.11
52.19
47.53
41.56
35.03
28.82
23.72
20.12
17.90
16.44
14.89
12.42
8.56
3.22
-3.33
-10.62
-18.10
-25.29
-31.83
-37.63
-42.98
-48.60
-55.54
-64.77
-76.54
-89.90
-102.60
-111.61
-114.08
-108.46
-95.12
-76.22
-54.92
-34.30
-16.44
-2.16
8.81
17.24
24.02
29.86
35.28
40.59
45.97
51.36
56.41
60.61
63.47
64.73
64.54
63.45
62.16
61.34
61.29
61.97
63.02
63.93
64.27
63.74
62.25
59.84
56.62
52.78
48.55
44.24
40.15
36.51
33.46
30.97
28.79
26.56
23.87
20.46
16.30
11.64
6.90
2.47
-1.50
-5.24
-9.19
-13.90
-19.67
-26.41
-33.64
-40.73
-47.17
-52.75
-57.74
-62.66
-68.20
-75.04
-83.68
-94.27
-106.31
-118.47
-128.52
-133.86
-132.23
-122.65
-105.87
-84.19
-60.66
-38.14
-18.51
-2.48
10.09
19.81
27.36
33.38
38.42
42.90
47.03
50.83
54.11
56.63
58.32
59.18
59.37
59.16
58.89
58.89
59.48
60.69
62.22
63.49
63.89
63.01
60.92
58.05
54.97
52.08
49.42
46.71
43.65
39.99
35.77
31.26
26.87
22.96
19.78
17.33
15.36
13.48
11.26
8.40
4.80
0.58
-4.01
-8.67
-13.26
-17.80
-22.51
-27.68
-33.50
-39.87
-46.42
-52.66
-58.15
-62.77
-66.85
-71.08
-76.36
-83.59
-93.32
-105.39
-118.62
-130.75
-138.89
-140.20
-133.01
-117.43
-95.47
-70.42
-45.74
-24.08
-6.72
6.30
15.77
22.71
28.09
32.62
36.81
40.91
44.98
48.80
52.00
54.18
55.09
54.76
53.56
52.10
51.04
50.87
51.76
53.44
55.30
56.56
56.50
54.72
51.27
46.66
41.66
37.04
33.31
30.57
28.47
26.41
23.85
20.50
16.40
11.90
7.50
3.63
0.53
-1.88
-3.95
-6.27
-9.48
-14.06
-20.11
-27.30
-34.88
-42.00
-48.07
-53.03
-57.49
-62.54
-69.45
-79.17
-91.83
-106.47
-120.96
-132.38
-137.67
-134.67
-122.79
-103.41
-79.49
-54.64
-32.00
-13.43
0.71
11.18
19.18
25.76
31.50
36.57
40.95
44.59
47.49
49.65
51.10
51.80
51.84
51.40
50.82
50.49
50.76
51.78
53.40
55.18
56.50
56.73
55.43
52.47
48.10
42.78
37.09
31.61
26.72
22.56
19.07
15.92
12.70
8.98
4.49
-0.82
-6.74
-12.87
-18.87
-24.59
-30.31
-36.69
-44.63
-54.95
-67.98
-83.17
-98.86
-112.45
-120.94
-121.87
-114.16
-98.59
