1629050923.00
64.000000
-0.00
-0.00
-0.00
-0.00
-0.00
-0.00
-0.00
-0.00
-0.00
-0.00
0.00
0.01
0.01
-0.00
-0.03
-0.05
-0.05
0.00
0.13
0.36
0.66
1.01
1.37
1.72
2.06
2.40
2.79
3.24
3.80
4.42
5.06
5.66
6.20
6.68
7.15
7.68
8.31
9.14
10.09
11.04
11.88
12.56
13.14
13.76
14.65
15.96
17.91
20.32
22.90
25.38
27.58
29.57
31.68
34.32
37.81
42.54
48.15
54.10
59.83
64.97
69.58
74.14
79.34
85.71
93.76
103.00
112.62
121.73
129.77
136.75
143.30
150.75
157.77
166.64
177.95
191.79
206.97
220.57
228.25
225.36
208.53
176.87
132.76
80.05
23.07
-34.94
-92.44
-149.16
-205.23
-260.37
-313.74
-363.87
-409.83
-450.91
-486.50
-515.74
-537.23
-549.22
-549.96
-538.37
-514.21
-478.67
-433.88
-382.45
-327.02
-269.84
-212.63
-156.66
-102.95
-52.37
-5.90
35.58
71.43
101.35
125.50
144.38
158.69
169.15
176.37
180.75
182.57
182.07
179.51
175.23
169.65
163.18
156.15
148.81
141.30
133.69
126.02
118.33
110.69
103.16
95.80
88.68
81.83
75.25
68.95
62.95
57.25
51.86
46.78
42.03
37.59
33.45
29.61
26.07
22.81
19.83
17.11
14.67
12.48
10.54
8.83
7.35
6.07
4.97
4.05
3.27
2.62
2.09
1.65
1.30
1.01
0.79
0.61
0.47
0.37
0.29
0.23
0.19
0.16
0.14
0.13
0.13
0.14
0.16
0.20
0.25
0.30
0.33
0.34
0.31
0.25
0.17
0.12
0.11
0.14
0.21
0.29
0.34
0.35
0.32
0.28
0.28
0.34
0.46
0.63
0.78
0.87
0.87
0.79
0.71
0.72
0.88
1.22
1.66
2.05
2.25
2.19
1.92
1.60
1.48
1.72
2.36
3.23
4.02
4.41
4.24
3.60
2.81
2.34
2.54
3.50
4.93
6.28
7.00
6.80
5.76
4.38
3.24
2.75
2.92
3.31
3.20
1.90
-1.13
-6.21
-13.35
-22.11
-31.23
-38.75
-42.29
-40.07
-31.71
-18.74
-4.25
8.35
16.61
19.88
19.21
16.52
13.43
10.62
7.96
5.03
1.88
-0.86
-2.33
-2.02
-0.21
2.14
3.88
4.20
3.00
0.92
-1.21
-2.64
-3.13
-2.87
-2.37
-2.11
-2.40
-3.37
-4.89
-6.60
-8.02
-8.57
-7.85
-5.72
-2.34
1.83
6.14
10.03
13.07
15.05
15.98
16.01
15.34
14.12
12.35
10.03
7.22
4.22
1.51
-0.42
-1.29
-1.21
-0.57
0.10
0.36
0.03
-0.99
-2.59
-4.72
-7.24
-9.93
-12.42
-14.39
-15.81
-16.99
-18.55
-21.07
-24.85
-29.75
-35.11
-39.93
-43.10
-43.64
-40.93
-34.90
-26.15
-15.76
-5.01
4.95
13.42
20.06
24.82
27.80
29.22
29.33
28.60
27.53
26.52
25.74
25.07
24.18
22.80
20.77
18.11
15.00
11.69
8.37
5.22
2.29
-0.50
-3.29
-6.29
-9.66
-13.52
-17.98
-23.13
-28.99
-35.45
-42.13
-48.37
-53.32
-56.06
-55.90
-52.50
-46.08
-37.31
-27.27
-17.05
-7.53
0.93
8.38
15.11
21.34
27.03
31.89
35.57
37.85
38.81
38.64
37.60
35.93
33.87
31.67
29.67
28.10
27.02
26.24
25.39
24.05
21.94
18.88
14.84
9.93
4.42
-1.31
-6.84
-11.91
-16.53
-21.00
-25.68
-30.64
-35.46
-39.34
-41.30
-40.59
-36.99
-30.82
-22.76
-13.64
-4.16
5.13
13.84
21.67
28.32
33.46
36.85
38.41
38.37
37.27
35.81
34.65
34.09
34.05
34.20
34.17
33.77
33.01
31.92
30.47
28.52
25.87
22.48
18.53
14.37
10.39
6.79
3.53
0.33
-3.18
-7.37
-12.40
-18.21
-24.50
-30.66
-35.96
-39.59
-40.85
-39.31
-35.00
-28.37
-20.29
-11.74
-3.55
3.82
10.31
16.11
21.38
26.04
29.84
32.46
33.76
33.91
33.24
32.17
31.00
29.91
28.90
27.93
26.96
25.94
24.81
23.46
21.74
19.52
16.64
13.09
8.99
4.64
0.41
-3.37
-6.59
-9.42
-12.33
-15.90
-20.55
-26.38
-33.08
-39.94
-46.01
-50.34
-52.21
-51.26
-47.58
-41.63
-34.14
-25.91
-17.66
-9.94
-3.15
2.47
6.82
9.91
11.86
12.87
13.21
13.13
12.86
12.57
12.35
12.24
12.15
11.96
11.55
10.82
9.70
8.22
6.38
4.24
1.86
-0.70
-3.42
-6.33
-9.55
-13.24
-17.56
-22.53
-27.98
-33.46
-38.29
-41.71
-43.02
-41.75
-37.85
-31.72
-24.12
-15.97
-8.09
-1.01
5.03
10.04
14.06
17.10
19.12
20.14
20.31
19.93
19.36
18.86
18.50
18.19
17.72
16.87
15.57
13.88
11.96
10.02
8.19
6.51
4.83
2.86
0.30
-3.09
-7.39
-12.46
-18.00
-23.54
-28.59
-32.57
-34.98
-35.35
-33.45
-29.30
-23.27
-15.96
-8.13
-0.44
6.69
13.04
18.56
23.20
26.85
29.36
30.64
30.77
30.03
28.82
27.50
26.29
25.23
24.20
23.00
21.52
19.74
17.71
15.49
13.10
10.50
7.65
4.51
1.14
-2.39
-6.05
-9.92
-14.17
-18.96
-24.27
-29.81
-34.96
-38.92
-40.87
-40.23
-36.86
-31.06
-23.52
-15.14
-6.79
0.91
7.66
13.40
18.20
22.12
25.12
27.10
28.05
28.11
27.53
26.62
25.55
24.34
22.90
21.15
19.11
16.95
14.85
12.94
11.16
9.33
7.21
4.68
1.73
-1.53
-4.97
-8.55
-12.34
-16.46
-21.02
-25.97
-31.11
-35.98
-39.99
-42.44
-42.77
-40.65
-36.14
-29.67
-21.91
-13.61
-5.43
2.15
8.89
14.67
19.47
23.33
26.31
28.47
29.91
30.70
30.94
30.72
30.15
29.38
28.58
27.88
27.34
26.91
26.42
25.65
24.32
22.18
19.07
15.10
10.58
5.95
1.63
-2.15
-5.46
-8.63
-12.08
-16.18
-21.07
-26.72
-32.84
-38.87
-44.12
-47.69
-48.83
-47.04
-42.40
-35.55
-27.53
-19.50
-12.29
-6.35
-1.70
1.88
4.60
6.63
7.99
8.70
8.79
8.34
7.48
6.43
5.37
4.45
3.69
3.01
2.24
1.15
-0.32
-2.16
-4.21
-6.33
-8.42
-10.56
-12.91
-15.68
-19.00
-22.93
-27.37
-32.12
-36.82
-41.00
-44.04
-45.31
-44.33
-40.85
-35.04
-27.47
-18.98
-10.48
-2.65
4.11
9.74
14.41
18.28
21.37
23.57
24.74
24.85
24.06
22.72
21.24
19.93
18.86
17.95
16.99
15.79
14.24
12.37
10.26
7.97
5.52
2.79
-0.33
-3.87
-7.80
-11.99
-16.26
-20.41
-24.22
-27.41
-29.57
-30.23
-29.01
-25.80
-20.82
-14.62
-7.99
-1.64
3.93
8.48
12.06
14.86
17.08
18.82
20.11
20.91
21.17
20.98
20.51
20.02
19.72
19.71
19.89
20.00
19.72
18.82
17.22
15.07
12.60
10.06
7.57
5.09
2.43
-0.64
-4.30
-8.52
-13.15
-17.86
-22.24
-25.82
-28.15
-28.86
-27.67
-24.52
-19.55
-13.17
-5.93
1.49
8.48
14.54
19.29
22.49
24.10
24.32
23.45
21.98
20.38
19.02
18.04
17.41
16.94
16.39
15.60
14.43
12.92
11.12
9.12
7.04
4.86
2.46
-0.44
-4.09
-8.60
-13.72
-18.87
-23.29
-26.25
-27.22
-26.04
-22.82
-17.91
-11.83
-5.17
1.43
7.36
12.15
15.50
17.31
17.69
16.90
15.26
13.20
11.13
9.32
7.88
6.64
5.34
3.67
1.54
-0.95
-3.52
-5.91
-8.01
-9.90
-11.92
-14.45
-17.86
-22.26
-27.50
-33.11
-38.35
-42.38
-44.47
-44.13
-41.25
-36.08
-29.14
-21.12
-12.73
-4.63
2.68
8.88
13.80
17.41
19.80
21.13
21.57
21.38
20.80
20.06
19.29
18.52
17.64
16.51
15.02
13.19
11.12
8.96
6.78
4.51
1.93
-1.26
-5.27
-10.09
-15.45
-20.81
-25.52
-28.96
-30.63
-30.31
-27.92
-23.63
-17.73
-10.74
-3.28
3.99
10.47
15.75
19.63
22.07
23.16
23.12
22.24
20.94
19.61
18.53
17.74
17.04
16.14
14.77
12.90
10.69
8.41
6.30
4.42
2.64
0.70
-1.75
-5.04
-9.36
-14.63
-20.42
-25.97
-30.32
-32.65
-32.45
-29.63
-24.54
-17.81
-10.15
-2.28
5.23
11.90
17.43
21.64
24.50
26.07
26.49
25.98
24.86
23.45
22.07
20.83
19.67
18.38
16.72
14.59
12.07
9.38
6.75
4.32
2.06
-0.18
-2.64
-5.59
-9.23
-13.70
-18.87
-24.39
-29.64
-33.84
-36.23
-36.28
-33.79
-28.97
-22.38
-14.75
-6.86
0.65
7.36
13.08
17.77
21.48
24.26
26.16
27.23
27.60
27.44
26.93
26.23
25.41
24.45
23.33
22.00
20.50
18.87
17.20
15.54
13.90
12.21
10.36
8.19
5.54
2.28
-1.71
-6.45
-11.79
-17.43
-22.81
-27.30
-30.24
-31.17
-29.86
-26.45
-21.32
-15.02
-8.22
-1.56
4.43
9.36
13.03
15.43
16.64
16.82
16.22
15.08
13.67
12.20
10.85
9.64
8.43
7.04
5.27
3.08
0.59
-1.96
-4.32
-6.37
-8.17
-9.97
-12.11
-14.92
-18.56
-23.02
-27.99
-32.96
-37.22
-40.07
-40.99
-39.71
-36.39
-31.44
-25.42
-18.91
-12.35
-6.10
-0.41
4.50
8.45
11.30
12.96
13.49
12.96
11.57
9.57
7.23
4.79
2.47
0.40
-1.33
-2.71
-3.76
-4.58
-5.38
-6.44
-8.07
-10.52
-13.92
-18.28
-23.41
-28.99
-34.43
-39.00
-41.95
-42.72
-41.11
-37.35
-31.99
-25.66
-18.86
-11.89
-4.96
1.68
7.73
12.86
16.83
19.54
21.09
21.66
21.43
20.55
19.18
17.46
15.54
13.58
11.71
10.05
8.60
7.32
6.09
4.73
3.03
0.76
-2.27
-6.19
-11.03
-16.61
-22.52
-28.09
-32.50
-34.99
-35.04
-32.59
-27.95
-21.71
-14.54
-7.01
0.43
7.54
14.13
20.08
25.28
29.53
32.63
34.44
34.95
34.34
32.98
31.31
29.67
28.18
26.73
25.08
23.01
20.46
17.54
14.46
11.43
8.52
5.62
2.46
-1.27
-5.84
-11.32
-17.49
-23.83
-29.59
-33.95
-36.24
-36.05
-33.32
-28.31
-21.56
-13.70
-5.37
2.86
10.61
17.58
23.62
28.63
32.54
35.32
37.01
37.73
37.69
37.16
36.40
35.56
34.68
33.68
32.45
30.93
29.08
26.94
24.55
21.92
19.05
15.92
12.56
9.03
5.43
1.79
-2.03
-6.27
-11.27
-17.22
-24.03
-31.16
-37.73
-42.69
-45.11
-44.44
-40.69
-34.40
-26.47
-17.94
-9.70
-2.35
3.85
8.91
12.92
15.97
18.08
19.27
19.66
19.49
19.07
18.72
18.58
18.60
18.58
18.23
17.37
15.92
13.96
11.71
9.41
7.24
5.23
3.24
0.97
-1.90
-5.65
-10.46
-16.32
-23.03
-30.19
-37.10
-42.91
-46.74
-47.91
-46.14
-41.66
-35.09
-27.27
-19.01
-10.91
-3.39
3.30
8.96
13.44
16.62
18.56
19.44
19.54
19.22
18.72
18.20
17.70
17.19
16.64
16.08
15.49
14.75
13.64
11.88
9.30
5.97
2.20
-1.60
-5.17
-8.50
-11.88
-15.70
-20.19
-25.19
-30.21
-34.54
-37.51
-38.64
-37.67
-34.60
-29.58
-22.98
-15.29
-7.08
1.13
8.86
15.77
21.62
26.21
29.41
31.20
31.74
31.38
30.56
29.71
29.08
28.72
28.46
28.08
27.38
26.25
24.71
22.83
20.68
18.33
15.80
13.07
10.11
6.83
3.15
-1.00
-5.60
-10.50
-15.40
-19.85
-23.34
-25.36
-25.56
-23.68
-19.76
-14.03
-7.05
0.36
7.34
13.10
17.17
19.50
20.35
20.16
19.36
18.26
17.12
16.12
15.41
15.05
14.93
14.85
14.56
13.90
12.84
11.50
10.03
8.51
7.01
5.51
3.97
2.25
0.15
-2.58
-6.08
-10.25
-14.64
-18.56
-21.31
-22.39
-21.62
-19.20
-15.55
-11.23
-6.70
-2.39
1.42
4.52
6.74
7.94
8.02
7.00
5.06
2.53
-0.23
-2.94
-5.50
-8.02
-10.60
-13.24
-15.78
-17.96
-19.56
-20.63
-21.38
-22.12
-23.21
-24.91
-27.38
-30.62
-34.38
-38.12
-41.05
-42.31
-41.29
-37.76
-32.00
-24.61
-16.22
-7.35
1.65
10.44
18.66
25.87
31.72
36.09
39.12
41.10
42.34
42.98
43.05
42.49
41.35
39.77
37.98
36.15
34.33
32.41
30.16
27.33
23.69
19.14
13.65
7.43
0.91
-5.24
-10.21
-13.29
-14.09
-12.65
-9.46
-5.28
-0.88
3.14
6.39
8.65
9.82
9.84
8.74
6.68
3.96
0.98
-1.93
-4.61
-7.00
-9.20
-11.31
-13.36
-15.29
-17.03
-18.55
-19.93
-21.36
-23.07
-25.26
-27.99
-31.10
-34.20
-36.73
-38.14
-37.96
-35.96
-32.14
-26.74
-20.17
-12.94
-5.61
1.32
7.47
12.63
16.71
19.66
21.47
22.10
21.62
20.24
18.34
16.41
14.81
13.62
12.73
11.83
10.68
9.19
7.40
5.32
2.90
-0.08
-3.83
-8.44
-13.64
-18.83
-23.11
-25.60
-25.65
-23.08
-18.23
-11.86
-4.92
1.77
7.63
12.44
16.24
19.10
21.12
22.26
22.52
21.94
20.73
19.17
17.53
15.94
14.37
12.68
10.66
8.23
5.39
2.23
-1.24
-5.02
-9.25
-14.00
-19.18
-24.46
-29.33
-33.17
-35.41
-35.68
-33.84
-30.08
-24.81
-18.67
-12.35
-6.49
-1.51
2.40
5.27
7.21
8.29
8.52
7.85
6.35
4.26
1.94
-0.21
-1.92
-3.14
-4.07
-4.97
-6.12
-7.67
-9.70
-12.23
-15.25
-18.70
-22.38
-25.88
-28.65
-30.02
-29.43
-26.58
-21.52
-14.72
-6.90
1.12
8.63
15.10
20.24
23.96
26.30
27.39
27.44
26.67
25.31
23.53
21.48
19.29
17.12
15.11
13.31
11.63
9.84
7.63
4.77
1.12
-3.28
-8.26
-13.47
-18.44
-22.53
-25.06
-25.55
-23.78
-19.99
-14.74
-8.67
-2.35
3.81
9.54
14.66
19.04
22.64
25.49
27.63
29.07
29.73
29.53
28.42
26.52
24.06
21.33
18.54
15.90
13.56
11.68
10.29
9.21
7.99
6.00
2.67
-2.17
-8.13
-14.35
-19.71
-23.16
-24.02
-22.12
-17.80
-11.78
-4.96
1.78
7.80
12.76
16.62
19.51
21.57
22.91
23.59
23.61
23.03
22.01
20.70
19.27
17.75
16.09
14.17
11.94
9.44
6.85
4.34
1.99
-0.28
-2.69
-5.54
-9.03
-13.19
-17.87
-22.77
-27.50
-31.59
-34.39
-35.36
-34.06
-30.45
-24.90
-18.14
-10.99
-4.11
2.13
7.63
12.42
16.54
19.98
22.70
24.72
26.09
26.90
27.19
27.00
26.39
25.46
24.35
23.08
21.59
19.72
17.38
14.57
11.43
8.18
4.95
1.77
-1.47
-4.90
-8.66
-12.83
-17.49
-22.62
-28.05
-33.33
-37.75
-40.49
-40.90
-38.73
-34.28
-28.21
-21.36
-14.42
-7.81
-1.75
3.71
8.44
12.26
15.01
16.63
17.18
16.91
16.11
15.04
13.89
12.75
11.66
10.62
9.62
8.63
7.58
6.35
4.83
2.97
0.73
-1.90
-4.92
-8.33
-12.19
-16.52
-21.28
-26.31
-31.26
-35.62
-38.77
-40.19
-39.56
-36.90
-32.56
-27.13
-21.20
-15.24
-9.54
-4.30
0.32
4.11
6.84
8.40
8.91
8.64
7.95
7.19
6.54
6.03
5.57
5.00
4.14
2.88
1.20
-0.78
-2.88
-4.86
-6.63
-8.24
-9.96
-12.12
-15.00
-18.71
-23.09
-27.70
-31.95
-35.20
-36.88
-36.64
-34.41
-30.38
-24.93
-18.52
-11.64
-4.73
1.82
7.68
12.60
16.47
19.29
21.12
22.06
22.29
21.99
21.36
20.64
19.94
19.24
18.41
17.25
15.65
13.64
11.36
9.00
6.71
4.47
2.15
-0.47
-3.62
-7.48
-12.07
-17.24
-22.64
-27.70
-31.76
-34.18
-34.49
-32.52
-28.47
-22.78
-16.11
-9.08
-2.17
4.30
10.19
15.42
19.89
23.51
26.19
27.93
28.80
28.99
28.68
28.02
27.12
26.04
24.82
23.52
22.19
20.83
19.43
17.92
16.20
14.17
11.71
8.71
5.04
0.64
-4.49
-10.22
-16.28
-22.27
-27.75
-32.24
-35.32
-36.65
-35.94
-33.14
-28.41
-22.10
-14.78
-7.00
0.73
8.01
14.48
19.82
23.75
26.16
27.17
27.19
26.80
26.51
26.57
26.96
27.44
27.68
27.43
26.55
24.94
22.68
19.95
17.05
14.31
11.96
10.01
8.26
6.35
3.95
0.84
-3.12
-7.90
-13.35
-19.14
-24.73
-29.41
-32.42
-33.22
-31.58
-27.65
-21.89
-14.89
-7.33
0.17
7.09
13.05
17.91
21.67
24.51
26.60
28.05
28.86
28.97
28.40
27.27
25.79
24.22
22.71
21.26
19.75
18.06
16.09
13.89
11.57
9.23
6.86
4.31
1.35
-2.22
-6.55
-11.60
-17.17
-23.00
-28.70
-33.84
-37.92
-40.47
-41.07
-39.52
-35.92
-30.64
-24.27
-17.47
-10.84
-4.78
0.45
4.73
7.97
10.15
11.30
11.54
11.13
10.37
9.57
8.91
8.42
8.01
7.47
6.65
5.49
4.06
2.45
0.72
-1.17
-3.37
-6.06
-9.38
-13.40
-18.01
-22.99
-27.93
-32.33
-35.62
-37.26
-36.93
-34.63
-30.61
-25.33
-19.27
-12.82
-6.27
0.16
6.18
11.46
15.64
18.47
19.82
19.78
18.63
16.78
14.67
12.66
10.90
9.30
7.62
5.57
2.97
-0.14
-3.55
-7.00
-10.32
-13.53
-16.87
-20.68
-25.30
-30.80
-36.98
-43.26
-48.83
-52.89
-54.89
-54.69
-52.52
-48.90
-44.32
-39.14
-33.54
-27.60
-21.42
-15.16
-9.04
-3.22
2.23
7.39
12.43
17.52
22.74
28.06
33.34
38.31
42.69
46.18
48.59
49.81
49.78
48.49
45.98
42.27
37.45
31.66
25.07
17.92
10.49
3.14
-3.74
-9.71
-14.37
-17.36
-18.35
-17.21
-13.95
-8.80
-2.27
5.06
12.56
19.71
26.09
31.33
35.09
37.08
37.17
35.55
32.78
29.63
26.76
24.53
22.84
21.28
19.45
17.17
14.53
11.79
9.17
6.66
4.07
1.06
-2.69
-7.36
-12.88
-18.93
-24.93
-30.11
-33.69
-35.04
-33.94
-30.57
-25.43
-19.19
-12.45
-5.66
0.88
6.89
12.14
16.37
19.39
21.12
21.68
21.25
20.14
18.61
16.89
15.13
13.41
11.81
10.36
9.08
7.96
6.92
5.84
4.48
2.57
-0.15
-3.87
-8.61
-14.18
-20.14
-25.81
-30.44
-33.34
-34.12
-32.66
-29.12
-23.83
-17.20
-9.73
-2.00
5.33
11.67
16.62
19.98
21.81
22.26
21.58
20.05
18.04
16.00
14.35
13.29
12.72
12.30
11.61
10.41
8.62
6.35
3.75
0.87
-2.31
-5.84
-9.74
-13.98
-18.44
-22.89
-26.95
-30.09
-31.81
-31.67
-29.51
-25.39
-19.65
-12.74
-5.17
2.47
9.61
15.74
20.46
23.63
25.19
25.27
24.06
21.85
19.05
16.16
13.66
11.83
10.68
9.97
9.29
8.36
7.01
5.19
2.89
-0.00
-3.66
-8.15
-13.27
-18.46
-22.93
-25.85
-26.61
-25.00
-21.32
-16.15
-10.14
-3.79
2.60
8.92
15.06
20.74
25.52
28.93
30.70
30.86
29.77
27.92
25.71
23.34
20.80
18.02
15.02
11.99
9.18
6.81
4.86
3.12
1.12
-1.57
-5.30
-10.10
-15.64
-21.30
-26.21
-29.52
-30.56
-29.04
-25.09
-19.28
-12.40
-5.28
1.47
7.55
12.89
17.57
21.59
24.84
27.08
28.15
28.02
26.94
25.25
23.32
21.33
19.33
17.25
15.01
12.69
10.40
8.24
6.20
4.10
1.66
-1.47
-5.60
-10.84
-16.98
-23.54
-29.71
-34.58
-37.38
-37.65
-35.34
-30.85
-24.81
-17.95
-10.93
-4.16
2.19
8.10
13.64
18.76
23.32
27.03
29.62
30.95
31.08
30.19
28.56
26.48
24.28
22.16
20.31
18.81
17.55
16.32
14.85
12.96
10.55
7.59
4.13
0.26
-3.90
-8.23
-12.58
-16.94
-21.36
-25.88
-30.33
-34.33
-37.17
-38.19
-36.92
-33.37
-27.91
-21.19
-13.89
-6.55
0.46
6.85
12.38
16.84
20.06
21.97
22.61
22.17
20.98
19.37
17.68
16.14
14.78
13.51
12.11
10.39
8.25
5.72
2.94
0.07
-2.79
-5.60
-8.41
-11.36
-14.60
-18.26
-22.38
-26.85
-31.37
-35.45
-38.52
-40.02
-39.58
-37.07
-32.64
-26.67
-19.65
-12.15
-4.69
2.24
8.25
13.01
16.31
18.09
18.47
17.74
16.36
14.79
13.33
12.09
10.94
9.61
7.89
5.75
3.37
1.00
-1.10
-2.90
-4.55
-6.34
-8.55
-11.38
-14.88
-19.00
-23.56
-28.26
-32.63
-36.06
-37.89
-37.58
-34.92
-30.08
-23.60
-16.23
-8.66
-1.46
5.04
10.61
15.11
18.41
20.50
21.45
21.49
20.92
20.01
18.91
17.68
16.27
14.67
12.91
11.03
9.11
7.21
5.39
3.70
2.10
0.43
-1.61
-4.44
-8.33
-13.31
-19.00
-24.64
-29.34
-32.23
-32.77
-30.79
-26.52
-20.54
-13.56
-6.35
0.44
6.38
11.28
15.15
18.05
20.06
21.17
21.42
20.88
19.72
18.16
16.42
14.58
12.66
10.60
8.40
6.19
4.11
2.28
0.65
-1.03
-3.11
-5.90
-9.52
-13.87
-18.63
-23.39
-27.76
-31.37
-33.85
-34.88
-34.14
-31.50
-27.01
-21.02
-14.04
-6.67
0.58
7.33
13.30
18.29
22.11
24.63
25.84
25.92
25.12
23.78
22.20
20.55
18.90
17.19
15.38
13.40
11.28
9.09
6.94
4.86
2.69
0.15
-3.17
-7.55
-13.05
-19.33
-25.74
-31.41
-35.56
-37.60
-37.27
-34.65
-30.07
-24.05
-17.22
-10.19
-3.49
2.48
7.48
11.37
14.11
15.75
16.39
16.23
15.55
14.61
13.64
12.67
11.62
10.33
8.68
6.70
4.52
2.36
0.35
-1.49
-3.36
-5.52
-8.27
-11.78
-16.09
-20.99
-26.13
-30.96
-34.81
-37.06
-37.22
-35.10
-30.84
-24.87
-17.76
-10.12
-2.44
4.87
11.49
17.11
21.47
24.39
25.84
26.01
25.31
24.23
23.21
22.46
21.93
21.36
20.46
19.04
17.14
14.98
12.81
10.78
8.84
6.71
4.07
0.61
-3.77
-9.02
-14.82
-20.66
-25.87
-29.74
-31.69
-31.39
-28.83
-24.32
-18.33
-11.40
-4.02
3.42
10.56
17.08
22.70
27.19
30.43
32.45
33.36
33.37
32.71
31.62
30.30
28.88
27.42
25.91
24.31
22.56
20.60
18.45
16.09
13.55
10.82
7.87
4.66
1.05
-3.09
-7.89
-13.33
-19.09
-24.54
-28.91
-31.50
-31.87
-30.04
-26.36
-21.32
-15.35
-8.79
-1.91
5.02
11.68
17.70
22.83
26.93
30.03
32.23
33.68
34.47
34.64
34.17
33.05
31.30
29.05
26.60
24.33
22.50
21.11
19.87
18.26
15.88
12.65
8.82
4.84
1.12
-2.24
-5.42
-8.78
-12.62
-17.08
-22.02
-27.16
-32.07
-36.33
-39.53
-41.26
-41.20
-39.13
-35.05
-29.21
-22.10
-14.35
-6.60
0.63
7.00
12.30
16.42
19.31
20.95
21.41
20.95
19.86
18.47
17.07
15.83
14.81
14.01
13.36
12.72
11.92
10.80
9.23
7.22
4.87
2.34
-0.29
-3.00
-5.90
-9.07
-12.63
-16.59
-20.86
-25.34
-29.80
-33.92
-37.26
-39.26
-39.42
-37.40
-33.23
-27.27
-20.20
-12.78
-5.65
0.82
6.51
11.43
15.60
18.93
21.33
22.72
23.15
22.81
21.95
20.83
19.64
18.54
17.64
16.97
16.48
16.01
15.31
14.10
12.25
9.83
7.04
4.19
1.53
-0.89
-3.18
-5.63
-8.55
-12.18
-16.51
-21.28
-25.99
-29.98
-32.69
-33.73
-32.97
-30.48
-26.46
-21.20
-14.97
-8.09
-0.97
6.00
12.39
17.83
22.00
24.74
26.02
26.00
25.02
23.59
22.24
21.34
20.97
20.96
20.91
20.48
19.47
17.87
15.80
13.40
10.76
7.92
4.96
1.95
-0.96
-3.72
-6.41
-9.24
-12.52
-16.53
-21.35
-26.85
-32.63
-38.09
-42.51
-45.25
-45.89
-44.35
-40.86
-35.90
-29.96
-23.46
-16.72
-10.00
-3.59
2.22
7.17
11.12
14.11
16.33
17.97
19.16
19.93
20.25
20.12
19.67
19.07
18.54
18.19
17.97
17.72
17.24
16.36
15.05
13.33
11.29
8.99
6.47
3.70
0.70
-2.50
-5.87
-9.37
-13.07
-17.05
-21.35
-25.87
-30.23
-33.86
-36.06
-36.28
-34.29
-30.33
-24.93
-18.79
-12.52
-6.47
-0.74
4.67
9.78
14.53
18.75
22.25
24.88
26.58
27.41
27.50
27.10
26.49
25.91
25.44
24.99
24.35
23.28
21.71
19.73
17.53
15.28
13.00
10.53
7.68
4.33
0.51
-3.69
-8.17
-12.93
-18.03
-23.49
-29.04
-34.19
-38.21
-40.43
-40.45
-38.29
-34.38
-29.39
-23.97
-18.55
-13.27
-8.07
-2.88
2.21
6.89
10.76
13.44
14.79
14.98
14.34
13.25
12.03
10.85
9.76
8.76
7.81
6.84
5.74
4.36
2.61
0.45
-2.11
-5.02
-8.26
-11.86
-15.80
-20.02
-24.33
-28.46
-32.08
-34.85
-36.46
-36.64
-35.23
-32.24
-27.88
-22.46
-16.40
-10.11
-4.02
1.47
6.00
9.29
11.27
12.07
11.96
11.25
10.21
8.97
7.62
6.22
4.88
3.67
2.66
1.81
0.98
0.00
-1.30
-3.04
-5.34
-8.25
-11.81
-15.97
-20.53
-25.14
-29.26
-32.31
-33.73
-33.23
-30.83
-26.85
-21.77
-16.05
-10.05
-3.94
2.07
7.74
12.68
16.51
18.94
19.93
19.71
18.68
17.21
15.56
13.84
12.07
10.23
8.40
6.68
5.16
3.83
2.48
0.80
-1.56
-4.84
-9.08
-14.08
-19.44
-24.62
-29.04
-32.16
-33.51
-32.83
-30.12
-25.66
-19.93
-13.50
-6.86
-0.39
5.68
11.19
15.98
19.86
22.69
24.35
24.85
24.33
23.01
21.15
19.02
16.81
14.62
12.48
10.39
8.31
6.20
4.01
1.66
-0.99
-4.16
-8.05
-12.79
-18.23
-23.98
-29.43
-33.88
-36.72
-37.54
-36.22
-32.88
-27.84
-21.51
-14.32
-6.63
1.24
8.97
16.25
22.68
27.87
31.48
33.39
33.75
32.97
31.56
30.00
28.57
27.41
26.45
25.63
24.79
23.78
22.39
20.40
17.64
14.08
9.85
5.21
0.40
-4.35
-8.95
-13.42
-17.77
-21.91
-25.59
-28.37
-29.71
-29.12
-26.33
-21.40
-14.73
-6.87
1.56
10.03
18.09
25.37
31.51
36.18
39.17
40.43
40.16
38.72
36.55
34.09
31.66
29.46
27.53
25.75
23.89
21.67
18.88
15.48
11.61
7.51
3.41
-0.54
-4.38
-8.32
-12.58
-17.34
-22.68
-28.45
-34.30
-39.60
-43.64
-45.67
-45.18
-42.00
-36.37
-28.90
-20.34
-11.49
-2.99
4.68
11.23
16.50
20.42
22.99
24.27
24.45
23.80
22.64
21.28
19.97
18.79
17.70
16.58
15.30
13.75
11.91
9.82
7.51
5.03
2.37
-0.50
-3.61
-7.05
-10.88
-15.17
-19.93
-25.00
-30.03
-34.51
-37.74
-39.06
-38.01
-34.52
-28.85
-21.58
-13.44
-5.06
3.05
10.52
17.10
22.60
26.91
30.02
32.03
33.04
33.15
32.44
30.97
28.94
26.61
24.29
22.22
20.42
18.81
17.23
15.58
13.86
12.06
10.12
7.84
4.99
1.38
-3.03
-8.12
-13.71
-19.50
-25.14
-30.19
-34.13
-36.42
-36.69
-34.80
-30.88
-25.35
-18.74
-11.56
-4.24
2.95
9.83
16.26
22.04
26.91
30.54
32.70
33.37
32.77
31.34
29.59
27.92
26.58
25.59
24.84
24.15
23.26
21.95
20.07
17.55
14.50
11.08
7.50
3.89
0.23
-3.58
-7.74
-12.34
-17.38
-22.72
-27.99
-32.67
-36.18
-37.95
-37.60
-35.06
-30.60
-24.67
-17.83
-10.55
-3.18
4.03
10.85
17.01
22.22
26.26
28.99
30.48
30.95
30.71
30.06
29.28
28.54
27.87
27.22
26.47
25.51
24.26
22.66
20.71
18.36
15.57
12.37
8.82
5.08
1.39
-2.10
-5.36
-8.57
-12.05
-16.11
-20.96
-26.46
-32.16
-37.34
-41.21
-43.12
-42.73
-40.12
-35.64
-29.87
-23.33
-16.45
-9.56
-2.89
3.33
8.82
13.29
16.57
18.60
19.53
19.68
19.34
18.79
18.19
17.56
16.93
16.31
15.72
15.10
14.32
13.17
11.48
9.19
6.41
3.39
0.37
-2.47
-5.12
-7.73
-10.56
-13.88
-17.83
-22.40
-27.26
-31.88
-35.58
-37.75
-37.94
-36.04
-32.15
-26.64
-20.00
-12.78
-5.57
1.10
6.88
11.58
15.20
17.83
19.59
20.53
20.78
20.51
19.99
19.48
19.16
19.04
18.94
18.62
17.88
16.65
14.98
13.02
10.94
8.85
6.79
4.79
2.81
0.77
-1.46
-4.10
-7.36
-11.46
-16.45
-22.15
-28.13
-33.71
-38.08
-40.53
-40.61
-38.26
-33.80
-27.84
-21.08
-14.10
-7.34
-1.05
4.61
9.51
13.52
16.58
18.77
20.28
21.36
22.18
22.83
23.21
23.26
22.96
22.42
21.81
21.24
20.69
20.03
19.07
17.66
15.75
13.41
10.78
8.00
5.19
2.40
-0.34
-3.12
-6.11
-9.56
-13.67
-18.52
-23.92
-29.35
-34.09
-37.39
-38.65
-37.63
-34.50
-29.74
-23.94
-17.69
-11.39
-5.24
0.61
6.02
10.77
14.62
17.40
19.12
19.97
20.32
20.44
20.56
20.75
20.96
21.10
21.09
20.85
20.30
19.40
18.19
16.77
15.28
13.78
12.21
10.42
8.19
5.46
2.33
-0.97
-4.19
-7.24
-10.21
-13.26
-16.63
-20.38
-24.45
-28.59
-32.45
-35.61
-37.66
-38.21
-37.07
-34.21
-29.77
-24.06
-17.50
-10.59
-3.86
2.21
7.26
11.11
13.78
15.42
16.19
16.23
15.74
14.89
13.90
13.01
12.37
11.99
11.72
11.36
10.74
9.77
8.48
6.92
5.16
3.23
1.13
-1.18
-3.82
-6.83
-10.25
-14.04
-18.03
-22.04
-25.88
-29.38
-32.31
-34.39
-35.32
-34.78
-32.61
-28.87
-23.89
-18.09
-11.97
-5.91
-0.22
4.86
9.08
12.18
14.01
14.58
14.15
13.12
11.97
11.03
10.46
10.19
10.04
9.73
9.08
7.96
6.33
4.27
1.87
-0.72
-3.38
-6.06
-8.81
-11.77
-15.11
-18.94
-23.20
-27.65
-31.80
-35.06
-36.83
-36.65
-34.36
-30.11
-24.35
-17.64
-10.59
-3.65
2.82
8.65
13.68
17.82
21.02
23.23
24.48
24.85
24.49
23.58
22.30
20.81
19.29
17.89
16.65
15.52
14.35
12.94
11.11
8.80
6.01
2.79
-0.86
-4.95
-9.48
-14.39
-19.48
-24.49
-29.12
-33.10
-36.12
-37.88
-38.08
-36.53
-33.25
-28.54
-22.85
-16.62
-10.21
-3.84
2.29
7.91
12.65
16.16
18.27
19.05
18.81
17.99
17.04
16.32
16.02
16.15
16.49
16.71
16.43
15.38
13.50
10.97
8.11
5.21
2.43
-0.27
-3.07
-6.22
-9.91
-14.24
-19.12
-24.25
-29.12
-33.05
-35.37
-35.56
-33.45
-29.22
-23.42
-16.78
-10.00
-3.62
2.14
7.27
11.90
16.11
19.83
22.79
24.73
25.49
25.17
24.12
22.78
21.54
20.53
19.69
18.81
17.75
16.47
14.97
13.31
11.46
9.34
6.87
4.03
0.85
-2.72
-6.74
-11.34
-16.50
-22.00
-27.33
-31.79
-34.66
-35.40
-33.81
-30.04
-24.52
-17.80
-10.50
-3.13
3.91
10.33
16.00
20.79
24.63
27.45
29.25
30.11
30.25
29.90
29.27
28.49
27.59
26.52
25.24
23.67
21.77
19.55
17.08
14.47
11.85
9.28
6.73
4.02
0.86
-3.03
-7.80
-13.35
-19.35
-25.29
-30.59
-34.72
-37.24
-37.86
-36.47
-33.15
-28.16
-21.93
-15.05
-8.12
-1.74
3.69
8.00
11.25
13.59
15.25
16.35
16.99
17.20
17.04
16.57
15.85
14.84
13.47
11.70
9.59
7.35
5.26
3.51
2.10
0.82
-0.65
-2.67
-5.47
-9.19
-13.80
-19.13
-24.81
-30.21
-34.61
-37.23
-37.56
-35.46
-31.23
-25.41
-18.64
-11.42
-4.11
3.04
9.79
15.76
20.56
23.82
25.40
25.42
24.25
22.45
20.53
18.88
17.66
16.81
16.09
15.22
13.98
12.29
10.21
7.88
5.40
2.77
-0.13
-3.50
-7.51
-12.21
-17.47
-22.97
-28.23
-32.62
-35.53
-36.42
-35.00
-31.38
-25.97
-19.45
-12.53
-5.77
0.50
6.20
11.31
15.81
19.57
22.39
24.12
24.75
24.47
23.61
22.52
21.41
20.35
19.25
17.98
16.51
14.87
13.21
11.57
9.91
8.04
5.70
2.69
-1.13
-5.73
-10.97
-16.58
-22.21
-27.37
-31.50
-34.00
-34.41
-32.56
-28.57
-22.92
-16.25
-9.20
-2.23
4.39
10.56
16.16
21.00
24.83
27.39
28.62
28.71
28.05
27.14
26.31
25.67
25.08
24.34
23.26
21.85
20.25
18.55
16.74
14.67
12.17
9.23
5.99
2.70
-0.51
-3.75
-7.34
-11.64
-16.74
-22.37
-27.91
-32.55
-35.59
-36.51
-35.16
-31.68
-26.45
-19.99
-12.90
-5.67
1.34
7.90
13.82
18.90
22.90
25.70
27.26
27.78
27.51
26.70
25.52
24.04
22.39
20.69
19.12
17.75
16.57
15.49
14.40
13.24
12.02
10.71
9.24
7.48
5.26
2.42
-1.17
-5.59
-10.82
-16.60
-22.41
-27.49
-30.97
-32.15
-30.77
-27.02
-21.46
-14.82
-7.75
-0.73
5.88
11.82
16.84
20.75
23.42
24.86
25.20
24.62
23.30
21.48
19.34
17.05
14.74
12.51
10.37
8.27
6.12
3.86
1.49
-0.95
-3.37
-5.76
-8.18
-10.82
-13.89
-17.58
-21.93
-26.81
-31.88
-36.68
-40.65
-43.22
-43.95
-42.55
-38.95
-33.38
-26.30
-18.34
-10.14
-2.28
4.78
10.76
15.49
18.92
21.03
21.91
21.63
20.38
18.47
16.29
14.25
12.64
11.56
10.82
10.09
9.06
7.55
5.61
3.45
1.21
-1.09
-3.62
-6.67
-10.44
-14.96
-19.98
-25.06
-29.62
-33.09
-34.98
-35.00
-33.07
-29.33
-24.06
-17.68
-10.60
-3.24
4.05
10.95
17.14
22.32
26.18
28.46
29.11
28.29
26.48
24.26
22.21
20.64
19.57
18.78
17.98
16.99
15.79
14.38
12.78
10.86
8.47
5.48
1.90
-2.20
-6.71
-11.58
-16.71
-21.85
-26.47
-29.94
-31.65
-31.25
-28.77
-24.53
-18.99
-12.58
-5.67
1.47
8.58
15.28
21.21
25.93
29.09
30.59
30.59
29.51
27.91
26.30
24.98
23.96
22.97
21.76
20.18
18.23
16.09
13.94
11.92
10.03
8.17
6.14
3.73
0.71
-3.11
-7.72
-12.91
-18.26
-23.15
-26.84
-28.71
-28.37
-25.81
-21.41
-15.73
-9.41
-2.91
3.43
9.45
14.99
19.85
23.76
26.51
28.05
28.48
28.09
27.21
26.13
25.02
23.91
22.73
21.35
19.61
17.50
15.14
12.71
10.43
8.39
6.50
4.50
2.15
-0.80
-4.44
-8.82
-13.91
-19.48
-25.10
-30.08
-33.57
-34.86
-33.63
-30.06
-24.75
-18.47
-11.85
-5.31
0.91
6.60
11.46
15.11
17.32
18.16
17.94
17.17
16.24
15.32
14.26
12.75
10.51
7.51
4.04
0.59
-2.31
-4.35
-5.57
-6.30
-7.04
-8.27
-10.37
-13.51
-17.69
-22.64
-27.79
-32.38
-35.51
-36.50
-35.03
-31.24
-25.67
-19.03
-12.03
-5.36
0.42
4.91
7.98
9.77
10.76
11.46
12.20
12.99
13.55
13.51
12.70
11.13
9.08
6.89
4.87
3.24
2.09
1.40
0.94
0.41
-0.65
-2.57
-5.51
-9.42
-13.93
-18.47
-22.27
-24.52
-24.58
-22.18
-17.59
-11.52
-4.87
1.53
7.24
12.10
16.11
19.27
21.46
22.56
22.57
21.70
20.40
19.09
18.02
17.14
16.24
14.99
13.22
10.95
8.38
5.79
3.31
0.91
-1.68
-4.76
-8.52
-12.88
-17.47
-21.72
-25.08
-27.09
-27.56
-26.48
-23.95
-20.22
-15.57
-10.35
-4.94
0.28
4.95
8.83
11.77
13.74
14.86
15.29
15.26
14.94
14.46
13.82
12.96
11.83
10.40
8.70
6.85
4.98
3.16
1.38
-0.51
-2.76
-5.59
-9.11
-13.20
-17.53
-21.55
-24.66
-26.34
-26.27
-24.41
-20.95
-16.28
-10.88
-5.27
0.07
4.77
8.56
11.31
12.97
13.57
13.19
12.01
10.29
8.35
6.48
4.86
3.55
2.47
1.49
0.46
-0.70
-2.07
-3.69
-5.63
-7.94
-10.56
-13.40
-16.22
-18.76
-20.70
-21.77
-21.73
-20.46
-18.00
-14.55
-10.38
-5.84
-1.21
3.25
7.36
10.91
13.70
15.53
16.27
15.90
14.52
12.38
9.81
7.17
4.78
2.85
1.43
0.40
-0.45
-1.40
-2.67
-4.41
-6.71
-9.55
-12.85
-16.41
-19.95
-23.05
-25.21
-25.96
-25.00
-22.29
-18.04
-12.76
-7.01
-1.36
3.80
8.22
11.81
14.54
16.39
17.34
17.41
16.69
15.35
13.64
11.84
10.12
8.58
7.21
5.94
4.67
3.35
1.96
0.42
-1.37
-3.62
-6.56
-10.30
-14.77
-19.57
-24.05
-27.45
-29.11
-28.77
-26.60
-23.12
-18.96
-14.63
-10.38
-6.26
-2.29
1.44
4.71
7.28
9.03
9.97
10.26
10.06
9.49
8.56
7.28
5.68
3.90
2.12
0.48
-0.83
-1.77
-2.35
-2.75
-3.33
-4.52
-6.71
-10.08
-14.46
-19.32
-23.88
-27.33
-28.98
-28.47
-25.81
-21.33
-15.62
-9.35
-3.13
2.52
7.26
10.93
13.48
14.98
15.55
15.34
14.57
13.41
12.01
10.49
8.96
7.47
6.03
4.60
3.07
1.29
-0.80
-3.14
-5.64
-8.25
-10.99
-14.03
-17.58
-21.65
-25.97
-29.92
-32.67
-33.50
-32.00
-28.27
-22.83
-16.47
-9.96
-3.86
1.53
6.11
9.84
12.66
14.52
15.38
15.36
14.67
13.61
12.43
11.26
10.09
8.80
7.27
5.42
3.35
1.24
-0.69
-2.32
-3.78
-5.43
-7.74
-11.11
-15.61
-20.80
-25.84
-29.76
-31.67
-31.13
-28.13
-23.10
-16.60
-9.28
-1.72
5.56
12.11
17.50
21.40
23.70
24.48
24.10
23.00
21.66
20.39
19.29
18.28
17.21
15.95
14.45
12.79
11.01
9.14
7.12
4.85
2.20
-0.93
-4.60
-8.82
-13.42
-18.09
-22.29
-25.42
-26.90
-26.36
-23.74
-19.27
-13.30
-6.28
1.33
9.01
16.18
22.20
26.59
29.17
30.13
29.93
29.09
27.99
26.82
25.62
24.35
23.01
21.61
20.12
18.50
16.68
14.64
12.39
9.93
7.21
4.12
0.52
-3.67
-8.39
-13.39
-18.22
-22.32
-25.05
-25.88
-24.49
-20.90
-15.52
-9.02
-2.23
4.10
9.41
13.44
16.09
17.41
17.51
16.56
14.85
12.76
10.73
9.14
8.22
7.89
7.82
7.56
6.73
5.18
3.02
0.44
-2.40
-5.53
-9.09
-13.15
-17.54
-21.79
-25.21
-27.11
-27.09
-25.14
-21.60
-17.00
-11.84
-6.38
-0.73
5.06
10.81
16.17
20.67
23.88
25.58
25.81
24.81
22.90
20.39
17.53
14.58
11.78
9.40
7.57
6.29
5.34
4.44
3.28
1.56
-0.91
-4.24
-8.47
-13.38
-18.51
-23.14
-26.41
-27.58
-26.26
-22.56
-17.01
-10.37
-3.45
3.12
8.97
13.93
18.00
21.25
23.71
25.37
26.16
26.05
25.05
23.28
20.91
18.17
15.33
12.68
10.48
8.93
7.99
7.30
6.31
4.36
1.05
-3.64
-9.35
-15.47
-21.34
-26.41
-30.18
-32.18
-32.02
-29.57
-25.07
-19.14
-12.62
-6.22
-0.31
5.11
10.25
15.17
19.71
23.48
26.00
27.03
26.62
25.09
22.90
20.45
18.01
15.69
13.55
11.64
10.04
8.82
7.91
7.12
6.07
4.35
1.59
-2.30
-7.15
-12.52
-17.73
-22.04
-24.79
-25.52
-24.09
-20.70
-15.78
-9.89
-3.52
2.90
9.01
14.49
19.02
22.38
24.51
25.51
25.64
25.16
24.26
23.02
21.46
19.60
17.46
15.10
12.56
9.93
7.36
5.02
3.05
1.42
-0.10
-1.95
-4.54
-8.17
-12.85
-18.25
-23.80
-28.79
-32.54
-34.51
-34.39
-32.22
-28.24
-22.88
-16.63
-9.93
-3.24
3.00
8.36
12.46
15.11
16.37
16.53
15.97
15.08
14.06
13.02
11.95
10.81
9.63
8.42
7.19
5.94
4.63
3.24
1.65
-0.25
-2.65
-5.73
-9.56
-14.05
-18.85
-23.43
-27.12
-29.33
-29.68
-28.07
-24.75
-20.17
-14.82
-9.09
-3.22
2.62
8.23
13.28
17.38
20.21
21.71
22.06
21.59
20.67
19.48
18.09
16.51
14.71
12.75
10.75
8.83
7.14
5.75
4.58
3.38
1.73
-0.78
-4.48
-9.35
-15.08
-21.08
-26.65
-31.12
-33.90
-34.55
-32.85
-28.89
-23.09
-16.17
-8.93
-2.06
4.03
9.19
13.45
16.78
19.18
20.64
21.21
21.02
20.23
18.99
17.38
15.47
13.35
11.14
9.00
7.06
5.44
4.14
3.04
1.96
0.64
-1.25
-3.96
-7.62
-12.12
-17.06
-21.78
-25.57
-27.76
-27.94
-26.01
-22.18
-16.89
-10.63
-3.93
2.78
9.09
14.68
19.33
22.88
25.32
26.75
27.37
27.36
26.95
26.27
25.39
24.30
22.89
21.06
18.80
16.25
13.70
11.41
9.52
7.90
6.18
3.91
0.72
-3.56
-8.85
-14.84
-21.04
-26.84
-31.54
-34.53
-35.38
-34.03
-30.71
-25.98
-20.43
-14.60
-8.89
-3.52
1.38
5.70
9.39
12.39
14.62
16.06
16.73
16.73
16.27
15.60
14.95
14.39
13.83
13.09
12.06
10.82
9.55
8.45
7.57
6.68
5.42
3.39
0.38
-3.59
-8.26
-13.30
-18.26
-22.66
-26.06
-28.05
-28.38
-27.05
-24.27
-20.38
-15.74
-10.66
-5.36
-0.04
5.13
9.93
14.22
17.78
20.43
21.94
22.23
21.34
19.49
17.10
14.57
12.15
10.00
8.06
6.29
4.62
3.04
1.50
-0.10
-1.89
-3.97
-6.40
-9.20
-12.34
-15.80
-19.48
-23.24
-26.83
-29.87
-31.95
-32.73
-31.96
-29.62
-25.83
-20.88
-15.14
-8.98
-2.74
3.24
8.69
13.34
16.92
19.29
20.42
20.42
19.59
18.30
16.87
15.55
14.50
13.68
12.93
12.04
10.82
9.17
7.13
4.83
2.41
-0.03
-2.50
-5.03
-7.72
-10.65
-13.92
-17.55
-21.48
-25.50
-29.21
-32.11
-33.68
-33.57
-31.59
-27.79
-22.38
-15.73
-8.30
-0.66
6.63
13.09
18.43
22.58
25.65
27.85
29.37
30.39
31.04
31.39
31.44
31.17
30.52
29.45
28.07
26.51
24.94
23.43
21.85
20.01
17.70
14.86
11.57
8.06
4.55
1.12
-2.25
-5.78
-9.69
-14.22
-19.41
-25.09
-30.76
-35.73
-39.31
-40.92
-40.40
-37.98
-34.16
-29.55
-24.64
-19.69
-14.78
-9.91
-5.14
-0.68
3.16
6.02
7.66
8.05
7.38
5.95
4.08
2.02
-0.08
-2.06
-3.77
-5.10
-6.07
-6.84
-7.70
-8.90
-10.57
-12.62
-14.85
-17.01
-18.96
-20.65
-22.12
-23.53
-25.08
-26.98
-29.41
-32.30
-35.25
-37.62
-38.70
-37.91
-35.05
-30.17
-23.56
-15.69
-7.11
1.51
9.49
16.27
21.58
25.47
28.28
30.42
32.14
33.55
34.62
35.27
35.48
35.31
34.86
34.20
33.38
32.37
31.11
29.53
27.61
25.37
22.91
20.31
17.56
14.60
11.24
7.40
3.10
-1.56
-6.41
-11.34
-16.28
-21.10
-25.49
-29.00
-31.12
-31.50
-30.09
-27.14
-23.08
-18.34
-13.25
-7.94
-2.51
2.97
8.31
13.22
17.33
20.31
21.94
22.20
21.32
19.75
17.97
16.43
15.32
14.64
14.24
13.89
13.35
12.42
10.93
8.76
5.89
2.44
-1.34
-5.15
-8.80
-12.22
-15.61
-19.27
-23.45
-28.19
-33.23
-38.05
-42.00
-44.51
-45.23
-44.08
-41.21
-36.85
-31.27
-24.80
-17.80
-10.75
-4.12
1.69
6.42
9.98
12.47
14.05
14.91
15.24
15.25
15.15
15.07
15.10
15.20
15.26
15.13
14.64
13.74
12.44
10.86
9.13
7.35
5.47
3.33
0.71
-2.58
-6.62
-11.30
-16.42
-21.64
-26.51
-30.47
-32.93
-33.39
-31.65
-27.92
-22.79
-16.94
-10.99
-5.20
0.44
6.00
11.44
16.49
20.80
24.06
26.22
27.43
27.95
27.95
27.53
26.73
25.63
24.40
23.26
22.35
21.69
21.14
20.42
19.28
17.47
14.91
11.60
7.72
3.49
-0.83
-5.10
-9.34
-13.72
-18.47
-23.73
-29.42
-35.12
-40.25
-44.18
-46.37
-46.62
-44.98
-41.78
-37.44
-32.32
-26.67
-20.64
-14.40
-8.19
-2.39
2.62
6.56
9.32
11.05
11.98
12.35
12.38
12.22
12.01
11.89
11.96
12.22
12.52
12.62
12.23
11.14
9.35
7.05
4.62
2.39
0.53
-1.00
-2.51
-4.40
-7.03
-10.51
-14.71
-19.26
-23.60
-27.13
-29.27
-29.56
-27.74
-23.83
-18.12
-11.11
-3.37
4.59
12.43
19.94
26.99
33.40
39.00
43.57
46.94
49.01
49.84
49.63
48.66
47.27
45.74
44.20
42.63
40.90
38.92
36.63
34.06
31.18
27.96
24.29
20.10
15.41
10.41
5.27
0.13
-5.06
-10.43
-16.12
-22.13
-28.21
-33.90
-38.63
-41.84
-43.16
-42.42
-39.69
-35.29
-29.65
-23.19
-16.34
-9.43
-2.73
3.47
8.88
13.23
16.37
18.31
19.29
19.68
19.82
19.93
20.02
19.99
19.74
19.25
18.57
17.74
16.72
15.35
13.49
11.04
8.07
4.71
1.09
-2.78
-7.05
-11.83
-17.12
-22.69
-28.04
-32.55
-35.61
-36.74
-35.67
-32.44
-27.31
-20.76
-13.40
-5.77
1.66
8.57
14.71
19.87
23.84
26.51
27.91
28.28
28.03
27.57
27.19
26.95
26.72
26.24
25.32
23.86
21.89
19.48
16.73
13.71
10.56
7.41
4.37
1.46
-1.50
-4.78
-8.69
-13.41
-18.92
-24.96
-31.05
-36.61
-40.98
-43.56
-43.91
-41.85
-37.54
-31.50
-24.44
-17.10
-10.05
-3.58
2.25
7.52
12.24
16.34
19.56
21.71
22.71
22.69
22.00
21.03
20.08
19.31
18.74
18.29
17.87
17.37
16.62
15.44
13.61
11.02
7.72
3.89
-0.21
-4.41
-8.67
-13.08
-17.83
-23.03
-28.69
-34.59
-40.31
-45.28
-48.81
-50.29
-49.36
-46.00
-40.55
-33.53
-25.58
-17.22
-8.85
-0.80
6.61
13.09
18.41
22.44
25.19
26.85
27.63
27.81
27.63
27.25
26.81
26.31
25.72
24.95
23.90
22.52
20.79
18.68
16.14
13.16
9.75
5.98
1.96
-2.25
-6.75
-11.68
-17.17
-23.14
-29.24
-34.79
-39.01
-41.20
-40.91
-38.12
-33.17
-26.67
-19.29
-11.61
-4.07
3.05
9.57
15.27
19.94
23.40
25.57
26.54
26.52
25.85
24.84
23.74
22.64
21.54
20.37
19.02
17.41
15.52
13.39
11.03
8.45
5.61
2.44
-1.07
-4.88
-8.96
-13.30
-17.97
-23.10
-28.61
-34.26
-39.56
-43.84
-46.48
-47.08
-45.50
-41.91
-36.61
-29.97
-22.32
-13.99
-5.24
3.58
12.09
19.81
26.26
31.07
34.09
35.45
35.53
34.87
34.00
33.29
32.89
32.73
32.55
32.00
30.79
28.72
25.76
22.09
17.99
13.79
9.75
5.93
2.21
-1.67
-6.04
-11.07
-16.71
-22.56
-27.94
-32.02
-34.08
-33.75
-31.08
-26.55
-20.78
-14.39
-7.74
-1.06
5.55
11.90
17.73
22.65
26.37
28.76
29.87
29.92
29.26
28.18
26.95
25.67
24.38
23.03
21.57
20.02
18.44
16.84
15.06
12.84
9.79
5.63
0.32
-5.81
-12.19
-18.16
-23.13
-26.73
-28.72
-29.04
-27.66
-24.69
-20.34
-15.06
-9.41
-3.97
0.79
4.57
7.26
8.91
9.66
9.68
9.17
8.27
7.14
5.88
4.57
3.22
1.83
0.39
-1.07
-2.50
-3.94
-5.44
-7.16
-9.34
-12.25
-16.06
-20.74
-25.94
-31.00
-35.09
-37.43
-37.58
-35.51
-31.66
-26.63
-21.00
-15.12
-9.17
-3.30
2.19
6.84
10.15
11.83
11.90
10.72
8.78
6.54
4.34
2.34
0.68
-0.58
-1.41
-1.94
-2.42
-3.21
-4.65
-6.96
-10.16
-14.09
-18.47
-22.84
-26.61
-29.17
-29.99
-28.75
-25.46
-20.42
-14.20
-7.41
-0.63
5.69
11.27
15.99
19.76
22.56
24.34
24.99
24.48
22.91
20.48
17.57
14.56
11.77
9.28
7.00
4.72
2.29
-0.38
-3.34
-6.58
-10.14
-14.08
-18.30
-22.49
-26.14
-28.59
-29.36
-28.19
-25.17
-20.55
-14.66
-7.79
-0.28
7.51
15.08
21.92
27.61
31.91
34.71
36.00
35.82
34.31
31.69
28.37
24.82
21.41
18.34
15.60
13.09
10.67
8.23
5.63
2.65
-1.01
-5.59
-11.16
-17.48
-23.97
-29.85
-34.28
-36.64
-36.58
-34.18
-29.74
-23.75
-16.66
-8.84
-0.59
7.77
15.89
23.35
29.74
34.79
38.42
40.69
41.76
41.79
40.95
39.38
37.27
34.77
31.99
29.03
25.94
22.76
19.53
16.31
13.08
9.74
6.16
2.15
-2.42
-7.61
-13.37
-19.51
-25.69
-31.41
-36.06
-38.99
-39.72
-38.01
-33.96
-27.94
-20.50
-12.19
-3.52
5.11
13.37
20.96
27.59
32.95
36.75
38.86
39.35
38.54
36.96
35.18
33.59
32.30
31.13
29.76
27.90
25.38
22.24
18.66
14.86
11.04
7.34
3.80
0.36
-3.16
-7.04
-11.60
-17.09
-23.53
-30.63
-37.72
-43.89
-48.19
-49.95
-48.92
-45.39
-39.94
-33.26
-25.93
-18.28
-10.58
-3.03
4.06
10.34
15.52
19.43
22.10
23.64
24.23
24.04
23.29
22.20
20.94
19.67
18.42
17.14
15.73
14.15
12.38
10.51
8.61
6.68
4.61
2.22
-0.70
-4.34
-8.75
-13.88
-19.56
-25.44
-31.03
-35.72
-38.82
-39.77
-38.27
-34.39
-28.55
-21.42
-13.68
-5.92
1.48
8.28
14.32
19.46
23.63
26.81
29.04
30.45
31.14
31.19
30.64
29.58
28.12
26.46
24.82
23.34
22.04
20.79
19.39
17.63
15.37
12.61
9.44
6.01
2.47
-1.07
-4.57
-8.11
-11.85
-16.02
-20.80
-26.21
-31.98
-37.53
-42.10
-44.86
-45.21
-42.92
-38.19
-31.59
-23.89
-15.83
-8.01
-0.79
5.58
10.97
15.32
18.64
21.02
22.68
23.87
24.78
25.51
26.02
26.24
26.13
25.67
24.88
23.78
22.41
20.78
18.99
17.12
15.27
13.48
11.72
9.85
7.74
5.15
1.87
-2.26
-7.27
-12.99
-19.09
-25.04
-30.29
-34.32
-36.69
-37.07
-35.35
-31.69
-26.53
-20.51
-14.26
-8.23
-2.65
2.46
7.07
11.10
14.38
16.72
18.04
18.33
17.69
16.34
14.56
12.67
11.01
9.76
8.86
8.10
7.17
5.91
4.32
2.48
0.39
-2.04
-4.99
-8.58
-12.71
-17.19
-21.77
-26.31
-30.71
-34.86
-38.41
-40.98
-42.12
-41.62
-39.50
-36.01
-31.41
-25.93
-19.73
-13.06
-6.34
-0.13
4.95
8.44
10.12
10.16
9.01
7.29
5.60
4.33
3.61
3.34
3.26
3.11
2.68
1.80
0.37
-1.64
-4.15
-7.03
-10.05
-13.06
-16.07
-19.17
-22.46
-25.83
-28.97
-31.44
-32.85
-32.93
-31.59
-28.92
-24.98
-19.96
-14.11
-7.79
-1.47
4.36
9.28
12.94
15.12
15.79
15.17
13.71
11.98
10.50
9.50
8.97
8.63
8.21
7.54
6.51
5.01
2.95
0.26
-3.03
-6.78
-10.75
-14.76
-18.68
-22.29
-25.29
-27.17
-27.49
-26.03
-22.96
-18.70
-13.69
-8.17
-2.13
4.46
11.38
18.07
23.80
27.94
30.21
30.76
30.04
28.56
26.75
24.87
23.06
21.43
20.03
18.86
17.80
16.62
14.93
12.32
8.55
3.57
-2.33
-8.61
-14.67
-20.01
-24.29
-27.30
-28.91
-29.02
-27.61
-24.82
-20.90
-16.19
-10.97
-5.36
0.53
6.59
12.51
17.78
21.91
24.53
25.54
25.16
23.82
22.01
20.13
18.42
16.90
15.48
14.00
12.40
10.70
8.95
7.12
5.00
2.29
-1.27
-5.73
-10.83
-16.11
-21.00
-24.98
-27.68
-28.85
-28.35
-26.19
-22.53
-17.66
-11.95
-5.77
0.60
6.91
12.97
18.53
23.32
27.10
29.72
31.13
31.39
30.66
29.21
27.33
25.33
23.40
21.62
19.92
18.24
16.50
14.73
12.88
10.84
8.32
5.03
0.75
-4.48
-10.41
-16.58
-22.51
-27.71
-31.78
-34.39
-35.33
-34.57
-32.19
-28.37
-23.35
-17.35
-10.66
-3.62
3.32
9.68
15.01
19.02
21.59
22.75
22.74
21.84
20.44
18.90
17.51
16.33
15.20
13.80
11.85
9.24
6.10
2.70
-0.64
-3.76
-6.69
-9.59
-12.70
-16.21
-20.16
-24.36
-28.49
-32.01
-34.37
-35.11
-33.97
-30.99
-26.47
-20.90
-14.81
-8.72
-3.03
1.95
6.01
9.04
10.97
11.81
11.65
10.69
9.24
7.68
6.37
5.48
4.96
4.57
3.96
2.88
1.21
-0.99
-3.56
-6.37
-9.36
-12.49
-15.73
-18.96
-21.94
-24.35
-25.82
-26.01
-24.71
-21.91
-17.72
-12.46
-6.49
-0.24
5.96
11.77
16.92
21.21
24.45
26.60
27.68
27.78
27.09
25.78
24.06
22.10
20.05
18.00
16.02
14.07
12.10
9.99
7.57
4.66
1.09
-3.19
-8.09
-13.32
-18.38
-22.68
-25.58
-26.63
-25.61
-22.67
-18.29
-13.08
-7.58
-2.15
3.08
8.10
12.85
17.09
20.50
22.84
24.04
24.27
23.82
22.94
21.73
20.21
18.38
16.32
14.16
12.02
9.94
7.85
5.59
2.99
-0.09
-3.78
-8.07
-12.87
-17.87
-22.57
-26.36
-28.63
-29.02
-27.40
-23.97
-19.11
-13.29
-7.02
-0.72
5.26
10.68
15.42
19.39
22.51
24.69
25.88
26.14
25.61
24.56
23.21
21.67
19.91
17.85
15.48
13.01
10.76
8.99
7.73
6.71
5.41
3.30
0.04
-4.33
-9.51
-14.93
-19.93
-23.92
-26.37
-26.96
-25.59
-22.37
-17.70
-12.10
-6.17
-0.44
4.77
9.31
13.18
16.39
18.97
20.86
22.02
22.48
22.36
21.89
21.23
20.45
19.50
18.20
16.45
14.27
11.85
9.42
7.16
5.07
2.94
0.49
-2.59
-6.44
-11.02
-16.08
-21.23
-26.01
-29.89
-32.43
-33.28
-32.34
-29.68
-25.63
-20.62
-15.13
-9.57
-4.28
0.47
4.45
7.40
9.13
9.62
9.04
7.78
6.24
4.74
3.40
2.19
0.99
-0.23
-1.44
-2.54
-3.43
-4.12
-4.73
-5.46
-6.57
-8.32
-10.92
-14.39
-18.56
-23.00
-27.06
-30.03
-31.35
-30.75
-28.28
-24.28
-19.23
-13.63
-7.86
-2.23
3.03
7.69
11.55
14.43
16.28
17.17
17.33
17.03
16.52
15.86
15.01
13.81
12.16
10.13
7.98
6.04
4.60
3.71
3.08
2.22
0.53
-2.44
-6.75
-12.06
-17.65
-22.51
-25.72
-26.66
-25.17
-21.55
-16.40
-10.41
-4.17
1.90
7.50
12.41
16.46
19.57
21.78
23.22
24.07
24.45
24.38
23.83
22.76
21.20
19.28
17.15
14.99
12.97
11.21
9.71
8.30
6.68
4.44
1.30
-2.86
-7.89
-13.39
-18.80
-23.51
-26.94
-28.63
-28.34
-26.09
-22.16
-17.01
-11.17
-5.18
0.58
5.88
10.59
14.67
18.06
20.72
22.60
23.72
24.12
23.96
23.35
22.41
21.16
19.64
17.87
15.94
14.00
12.12
10.31
8.43
6.31
3.74
0.64
-3.03
-7.26
-11.89
-16.62
-20.90
-24.07
-25.47
-24.70
-21.78
-17.12
-11.37
-5.20
0.86
6.48
11.49
15.76
19.17
21.63
23.13
23.79
23.82
23.46
22.92
22.22
21.27
19.87
17.87
15.23
12.14
8.90
5.83
3.09
0.63
-1.78
-4.46
-7.65
-11.44
-15.77
-20.44
-25.14
-29.44
-32.83
-34.77
-34.85
-32.94
-29.23
-24.20
-18.47
-12.60
-7.01
-1.99
2.26
5.60
7.91
9.19
9.55
9.21
8.41
7.31
5.97
4.30
2.24
-0.17
-2.74
-5.17
-7.12
-8.46
-9.27
-9.93
-10.98
-12.85
-15.79
-19.70
-24.16
-28.56
-32.19
-34.45
-34.83
-33.06
-29.17
-23.50
-16.63
-9.25
-2.08
4.31
9.52
13.32
15.65
16.64
16.55
15.74
14.60
13.43
12.37
11.35
10.22
8.76
6.91
4.73
2.49
0.47
-1.07
-2.11
-2.89
-3.83
-5.37
-7.76
-10.95
-14.59
-18.12
-21.00
-22.75
-23.14
-22.07
-19.72
-16.37
-12.45
-8.40
-4.57
-1.18
1.62
3.74
5.10
5.64
5.39
4.56
3.45
2.43
1.74
1.44
1.45
1.58
1.63
1.39
0.73
-0.53
-2.46
-5.09
-8.29
-11.85
-15.37
-18.44
-20.65
-21.62
-21.11
-19.03
-15.47
-10.67
-4.99
1.14
7.30
13.11
18.32
22.72
26.16
28.52
29.67
29.55
28.23
25.95
23.10
20.10
17.26
14.70
12.39
10.23
8.12
5.93
3.53
0.72
-2.69
-6.83
-11.60
-16.68
-21.56
-25.67
-28.46
-29.53
-28.72
-26.12
-22.05
-16.98
-11.40
-5.66
0.01
5.59
11.03
16.23
20.92
24.76
27.40
28.66
28.56
27.34
25.38
23.11
20.87
18.88
17.23
15.90
14.82
13.84
12.77
11.36
9.27
6.19
1.94
-3.37
-9.27
-14.98
-19.54
-22.19
-22.54
-20.68
-17.10
-12.48
-7.43
-2.37
2.52
7.18
11.54
15.47
18.77
21.21
22.68
23.16
22.74
21.55
19.75
17.52
15.01
12.40
9.87
7.58
5.63
4.01
2.58
1.10
-0.76
-3.31
-6.83
-11.42
-16.87
-22.72
-28.23
-32.61
-35.14
-35.45
-33.54
-29.75
-24.64
-18.81
-12.79
-6.99
-1.70
2.86
6.48
9.04
10.48
10.86
10.36
9.25
7.79
6.21
4.59
2.96
1.32
-0.27
-1.73
-3.03
-4.22
-5.47
-7.04
-9.17
-11.98
-15.45
-19.42
-23.57
-27.46
-30.54
-32.27
-32.16
-29.94
-25.66
-19.68
-12.58
-5.07
2.13
8.42
13.31
16.58
18.21
18.47
17.80
16.68
15.53
14.57
13.83
13.23
12.60
11.82
10.77
9.40
7.69
5.65
3.24
0.43
-2.84
-6.61
-10.79
-15.10
-19.05
-22.10
-23.76
-23.70
-21.82
-18.28
-13.44
-7.77
-1.79
4.01
9.27
13.68
17.09
19.39
20.53
20.54
19.55
17.84
15.84
13.95
12.43
11.21
9.99
8.36
6.03
3.00
-0.53
-4.33
-8.25
-12.28
-16.41
-20.49
-24.14
-26.83
-28.04
-27.46
-25.10
-21.20
-16.15
-10.36
-4.19
2.02
8.01
13.53
18.39
22.34
25.20
26.76
26.98
25.95
23.95
21.39
18.69
16.15
13.96
12.18
10.72
9.38
7.90
6.00
3.45
0.15
-3.81
-8.19
-12.60
-16.57
-19.58
-21.15
-20.90
-18.72
-14.84
-9.72
-3.98
1.82
7.32
12.31
16.71
20.39
23.15
24.83
25.37
24.88
23.63
22.01
20.36
18.86
17.58
16.42
15.27
13.96
12.42
10.52
8.14
5.16
1.51
-2.70
-7.17
-11.39
-14.82
-17.01
-17.70
-16.90
-14.79
-11.64
-7.74
-3.36
1.24
5.77
9.96
13.47
16.06
17.52
17.78
16.88
15.01
12.49
9.67
6.92
4.50
2.52
0.92
-0.45
-1.84
-3.52
-5.69
-8.52
-12.05
-16.21
-20.79
-25.40
-29.51
-32.53
-33.95
-33.52
-31.24
-27.37
-22.30
-16.48
-10.31
-4.19
1.47
6.20
9.56
11.25
11.26
9.90
7.70
5.28
3.13
1.58
0.73
0.54
0.83
1.31
1.63
1.41
0.37
-1.65
-4.59
-8.18
-11.96
-15.36
-17.77
-18.62
-17.58
-14.57
-9.87
-4.05
2.23
8.38
13.96
18.72
22.54
25.30
26.97
27.60
27.25
26.09
24.32
22.10
19.58
16.89
14.11
11.28
8.40
5.50
2.61
-0.19
-2.93
-5.73
-8.84
-12.41
-16.34
-20.18
-23.14
-24.44
-23.61
-20.68
-16.11
-10.58
-4.76
0.88
6.00
10.38
13.85
16.37
18.04
19.09
19.76
20.18
20.26
19.80
18.65
16.78
14.35
11.61
8.77
5.94
3.08
0.16
-2.89
-6.06
-9.30
-12.54
-15.61
-18.24
-20.05
-20.66
-19.80
-17.44
-13.78
-9.17
-4.01
1.28
6.38
10.97
14.80
17.67
19.43
20.09
19.78
18.74
17.29
15.67
14.04
12.43
10.75
8.93
6.94
4.87
2.92
1.19
-0.34
-1.95
-4.02
-6.88
-10.58
-14.77
-18.80
-21.90
-23.42
-23.01
-20.69
-16.82
-11.89
-6.52
-1.23
3.52
7.45
10.46
12.58
13.96
14.77
15.09
14.98
14.44
13.48
12.22
10.74
9.18
7.56
5.88
4.09
2.22
0.30
-1.61
-3.52
-5.60
-8.07
-11.14
-14.82
-18.85
-22.66
-25.56
-26.92
-26.38
-23.97
-20.10
-15.33
-10.22
-5.21
-0.53
3.67
7.29
10.25
12.41
13.78
14.39
14.32
13.69
12.59
11.14
9.45
7.66
5.90
4.21
2.55
0.84
-1.04
-3.13
-5.46
-8.04
-10.83
-13.75
-16.59
-19.08
-20.80
-21.35
-20.43
-17.98
-14.20
-9.51
-4.44
0.54
5.08
9.03
12.36
15.03
16.99
18.14
18.42
17.87
16.66
15.06
13.34
11.68
10.18
8.85
7.64
6.49
5.28
3.85
1.98
-0.54
-3.85
-7.80
-11.92
-15.54
-17.90
-18.47
-17.12
-14.10
-9.95
-5.22
-0.40
4.23
8.47
12.13
14.99
16.80
17.38
16.77
15.20
13.09
10.88
8.90
7.29
5.96
4.64
3.07
1.05
-1.44
-4.36
-7.63
-11.22
-15.13
-19.31
-23.55
-27.43
-30.46
-32.13
-32.16
-30.51
-27.39
-23.12
-18.14
-12.86
-7.71
-3.11
0.59
3.11
4.39
4.55
3.89
2.78
1.51
0.28
-0.86
-1.93
-2.99
-4.08
-5.25
-6.52
-7.93
-9.55
-11.45
-13.74
-16.47
-19.55
-22.65
-25.24
-26.67
-26.43
-24.28
-20.35
-15.08
-9.01
-2.66
3.53
9.15
13.85
17.33
19.37
19.97
19.29
17.66
15.43
12.89
10.34
8.01
6.04
4.42
2.99
1.44
-0.52
-3.09
-6.27
-9.93
-13.91
-18.05
-22.15
-25.88
-28.72
-30.06
-29.41
-26.65
-22.03
-16.18
-9.79
-3.44
2.54
7.97
12.71
16.61
19.50
21.24
21.80
21.38
20.20
18.53
16.63
14.65
12.78
11.14
9.83
8.87
8.11
7.25
5.88
3.61
0.25
-4.01
-8.65
-12.90
-16.00
-17.43
-17.02
-14.95
-11.56
-7.25
-2.34
2.85
8.08
13.10
17.64
21.43
24.23
25.82
26.12
25.17
23.25
20.74
18.09
15.61
13.40
11.43
9.59
7.81
6.08
4.40
2.70
0.70
-1.90
-5.36
-9.72
-14.69
-19.68
-23.94
-26.76
-27.60
-26.24
-22.75
-17.50
-10.98
-3.77
3.60
10.64
16.97
22.25
26.25
28.82
29.97
29.87
28.91
27.58
26.34
25.40
24.71
23.96
22.86
21.23
19.16
16.85
14.43
11.92
9.15
5.95
2.25
-1.93
-6.50
-11.38
-16.48
-21.58
-26.23
-29.80
-31.64
-31.34
-28.88
-24.54
-18.84
-12.31
-5.49
1.16
7.20
12.24
16.05
18.52
19.72
19.82
19.01
17.53
15.67
13.72
11.88
10.27
8.80
7.29
5.60
3.73
1.82
0.05
-1.55
-3.11
-4.94
-7.42
-10.79
-15.07
-20.03
-25.14
-29.72
-33.07
-34.59
-33.96
-31.21
-26.66
-20.84
-14.31
-7.63
-1.22
4.52
9.24
12.69
14.78
15.61
15.43
14.57
13.31
11.83
10.21
8.47
6.67
4.86
3.10
1.44
-0.11
-1.62
-3.18
-4.95
-7.16
-9.99
-13.57
-17.86
-22.58
-27.18
-30.99
-33.32
-33.66
-31.84
-28.02
-22.69
-16.45
-9.91
-3.51
2.48
7.92
12.66
16.53
19.35
21.02
21.58
21.26
20.38
19.26
18.09
16.93
15.78
14.56
13.23
11.73
10.05
8.17
6.12
3.95
1.66
-0.87
-3.89
-7.67
-12.30
-17.55
-22.77
-27.08
-29.65
-29.96
-27.97
-24.05
-18.77
-12.72
-6.41
-0.19
5.71
11.04
15.60
19.24
21.87
23.46
24.04
23.76
22.81
21.39
19.69
17.79
15.71
13.44
10.99
8.44
5.90
3.50
1.29
-0.79
-2.98
-5.60
-8.96
-13.20
-18.24
-23.70
-29.02
-33.54
-36.62
-37.81
-36.88
-33.92
-29.21
-23.21
-16.38
-9.14
-1.85
5.15
11.55
17.01
21.25
24.13
25.68
26.15
25.91
25.32
24.65
24.03
23.42
22.69
21.63
20.08
18.01
15.51
12.80
10.12
7.62
5.25
2.83
0.08
-3.29
-7.42
-12.27
-17.63
-23.06
-27.97
-31.68
-33.53
-33.07
-30.18
-25.11
-18.42
-10.82
-2.93
4.72
11.79
17.99
23.05
26.70
28.83
29.55
29.19
28.24
27.18
26.28
25.57
24.88
23.97
22.69
21.06
19.19
17.25
15.35
13.44
11.38
8.95
5.95
2.26
-2.10
-7.04
-12.34
-17.65
-22.49
-26.30
-28.58
-29.05
-27.79
-25.08
-21.32
-16.84
-11.77
-6.16
-0.09
6.10
11.84
16.49
19.54
20.89
20.84
19.91
18.66
17.43
16.26
15.06
13.69
12.15
10.65
9.39
8.51
7.77
6.70
4.78
1.76
-2.32
-7.06
-11.91
-16.44
-20.37
-23.49
-25.62
-26.53
-26.02
-24.09
-20.89
-16.76
-12.03
-6.93
-1.65
3.57
8.40
12.42
15.24
16.64
16.62
15.34
13.08
10.17
7.01
4.06
1.69
0.12
-0.79
-1.42
-2.29
-3.74
-5.96
-8.85
-12.22
-15.91
-19.84
-23.88
-27.83
-31.28
-33.69
-34.58
-33.66
-30.93
-26.71
-21.45
-15.64
-9.68
-3.86
1.62
6.60
10.90
14.27
16.43
17.19
16.57
14.73
12.09
9.15
6.34
3.96
2.08
0.63
-0.61
-1.84
-3.29
-5.15
-7.57
-10.68
-14.41
-18.54
-22.64
-26.15
-28.51
-29.32
-28.35
-25.62
-21.34
-15.85
-9.55
-2.88
3.67
9.73
14.97
19.16
22.14
23.86
24.35
23.79
22.44
20.61
18.55
16.42
14.29
12.23
10.31
8.61
7.15
5.79
4.20
1.97
-1.22
-5.47
-10.50
-15.76
-20.57
-24.25
-26.22
-26.15
-23.94
-19.77
-14.07
-7.40
-0.39
6.42
12.61
17.94
22.29
25.60
27.87
29.11
29.42
29.01
28.07
26.78
25.24
23.47
21.40
19.02
16.34
13.46
10.50
7.52
4.53
1.42
-1.95
-5.69
-9.81
-14.15
-18.39
-22.13
-24.93
-26.37
-26.15
-24.09
-20.23
-14.80
-8.29
-1.29
5.66
12.12
17.81
22.50
25.97
28.06
28.69
28.04
26.53
24.74
23.12
21.92
20.99
20.03
18.66
16.66
14.01
10.93
7.70
4.59
1.76
-0.79
-3.26
-5.92
-9.05
-12.73
-16.84
-21.07
-24.94
-27.92
-29.53
-29.38
-27.28
-23.24
-17.52
-10.61
-3.16
4.18
10.82
16.37
20.63
23.57
25.30
25.99
25.89
25.33
24.60
23.96
23.51
23.16
22.69
21.77
20.22
17.99
15.28
12.41
9.73
7.43
5.49
3.67
1.64
-0.93
-4.27
-8.42
-13.23
-18.39
-23.46
-27.91
-31.18
-32.77
-32.35
-29.85
-25.51
-19.84
-13.51
-7.19
-1.41
3.52
7.48
10.46
12.52
13.67
13.96
13.48
12.44
11.17
9.97
9.02
8.29
7.60
6.73
5.55
4.14
2.69
1.35
0.16
-1.03
-2.46
-4.33
-6.78
-9.84
-13.47
-17.54
-21.84
-25.90
-29.15
-30.99
-30.98
-28.97
-25.18
-20.08
-14.28
-8.35
-2.70
2.43
6.92
10.76
13.86
16.12
17.44
17.83
17.50
16.75
15.87
15.00
14.07
12.92
11.49
9.87
8.37
7.27
6.66
6.40
6.09
5.31
3.63
0.80
-3.25
-8.30
-13.91
-19.38
-23.98
-27.06
-28.22
-27.40
-24.83
-20.92
-16.19
-11.17
-6.27
-1.70
2.52
6.50
10.32
13.89
16.96
19.22
20.52
20.93
20.61
19.78
18.57
17.04
15.26
13.34
11.47
9.75
8.17
6.63
4.99
3.21
1.31
-0.64
-2.70
-5.03
-7.83
-11.22
-15.17
-19.40
-23.50
-26.96
-29.31
-30.12
-29.18
-26.46
-22.16
-16.67
-10.45
-3.97
2.35
8.15
13.11
16.96
19.58
20.96
21.30
20.92
20.18
19.42
18.77
18.30
17.86
17.25
16.28
14.87
13.07
11.01
8.84
6.58
4.17
1.53
-1.28
-4.13
-6.83
-9.33
-11.86
-14.80
-18.47
-22.86
-27.46
-31.44
-33.87
-34.12
-32.06
-28.00
-22.54
-16.32
-9.81
-3.32
2.97
8.90
14.20
18.53
21.54
23.11
23.34
22.67
21.64
20.72
20.19
20.00
19.95
19.72
19.00
17.60
15.48
12.79
9.82
6.92
4.38
2.27
0.44
-1.47
-3.82
-6.91
-10.83
-15.49
-20.61
-25.70
-30.15
-33.22
-34.27
-32.98
-29.49
-24.41
-18.60
-12.87
-7.75
-3.47
0.03
2.84
4.98
6.43
7.20
7.31
6.97
6.34
5.59
4.78
3.82
2.63
1.16
-0.53
-2.25
-3.75
-4.86
-5.56
-6.10
-6.91
-8.45
-11.08
-14.93
-19.85
-25.43
-31.10
-36.20
-40.08
-42.21
-42.29
-40.27
-36.39
-31.11
-24.93
-18.42
-12.08
-6.33
-1.50
2.22
4.74
6.12
6.51
6.11
5.19
3.95
2.60
1.26
-0.01
-1.22
-2.35
-3.32
-4.07
-4.54
-4.83
-5.23
-6.19
-8.13
-11.28
-15.52
-20.40
-25.20
-29.17
-31.72
-32.45
-31.31
-28.49
-24.35
-19.29
-13.70
-7.95
-2.33
2.88
7.45
11.20
13.99
15.80
16.67
16.71
16.09
14.99
13.62
12.19
10.84
9.62
8.50
7.40
6.22
4.86
3.20
1.11
-1.63
-5.16
-9.49
-14.33
-19.17
-23.33
-26.14
-27.17
-26.26
-23.48
-19.12
-13.56
-7.19
-0.46
6.16
12.20
17.24
20.96
23.28
24.31
24.33
23.67
22.61
21.32
19.83
18.16
16.33
14.43
12.54
10.72
8.90
6.97
4.75
2.12
-0.99
-4.57
-8.60
-12.99
-17.56
-21.96
-25.72
-28.28
-29.14
-27.95
-24.68
-19.53
-12.92
-5.42
2.36
9.87
16.62
22.29
26.68
29.77
31.68
32.59
32.76
32.39
31.61
30.46
28.94
27.04
24.82
22.39
19.87
17.33
14.77
12.12
9.25
5.98
2.15
-2.33
-7.44
-12.97
-18.52
-23.49
-27.24
-29.21
-29.07
-26.77
-22.57
-16.84
-10.08
-2.79
4.51
11.32
17.17
21.72
24.76
26.33
26.59
25.85
24.44
22.72
20.96
19.40
18.10
17.00
15.89
14.54
12.79
10.60
7.99
5.00
1.62
-2.21
-6.55
-11.38
-16.57
-21.78
-26.54
-30.25
-32.30
-32.21
-29.79
-25.18
-18.83
-11.42
-3.62
3.96
10.87
16.77
21.39
24.57
26.22
26.45
25.54
23.85
21.73
19.45
17.12
14.73
12.23
9.59
6.89
4.21
1.65
-0.81
-3.34
-6.20
-9.62
-13.75
-18.47
-23.49
-28.36
-32.52
-35.43
-36.66
-35.94
-33.23
-28.65
-22.45
-14.97
-6.53
2.44
11.41
19.71
26.62
31.57
34.29
34.93
34.00
32.16
30.01
27.85
25.81
23.82
21.87
19.96
18.18
16.50
14.79
12.79
10.16
6.67
2.22
-3.07
-8.91
-14.86
-20.37
-24.83
-27.66
-28.44
-26.95
-23.33
-17.95
-11.35
-4.08
3.40
10.69
17.48
23.45
28.34
31.95
34.23
35.29
35.36
34.69
33.52
32.05
30.40
28.71
27.06
25.46
23.85
22.12
20.12
17.85
15.32
12.58
9.65
6.43
2.76
-1.53
-6.45
-11.83
-17.28
-22.24
-26.13
-28.45
-28.93
-27.48
-24.20
-19.28
-13.00
-5.62
2.48
10.81
18.78
25.78
31.29
35.06
37.12
37.68
37.08
35.65
33.74
31.71
29.90
28.55
27.61
26.83
25.76
24.02
21.47
18.23
14.62
10.96
7.38
3.88
0.36
-3.26
-7.02
-10.93
-15.04
-19.49
-24.35
-29.56
-34.78
-39.44
-42.86
-44.40
-43.65
-40.54
-35.31
-28.48
-20.70
-12.62
-4.79
2.38
8.63
13.83
17.97
21.16
23.54
25.26
26.41
26.99
26.92
26.17
24.83
23.15
21.42
19.90
18.72
17.86
17.15
16.36
15.28
13.65
11.34
8.29
4.63
0.58
-3.52
-7.43
-11.07
-14.54
-18.01
-21.69
-25.56
-29.43
-32.90
-35.55
-37.00
-37.04
-35.59
-32.70
-28.50
-23.11
-16.74
-9.70
-2.51
4.25
10.02
14.49
17.61
19.58
20.70
21.20
21.22
20.85
20.24
19.58
19.07
18.79
18.63
18.38
17.73
16.50
14.63
12.23
9.50
6.70
4.02
1.59
-0.67
-2.91
-5.43
-8.45
-12.06
-16.17
-20.53
-24.78
-28.54
-31.46
-33.18
-33.43
-32.08
-29.20
-25.08
-20.15
-14.89
-9.65
-4.70
-0.21
3.72
6.99
9.52
11.28
12.23
12.44
12.00
11.07
9.84
8.48
7.12
5.79
4.47
3.15
1.89
0.81
-0.03
-0.70
-1.43
-2.56
-4.40
-7.08
-10.57
-14.65
-19.04
-23.37
-27.29
-30.46
-32.61
-33.54
-33.18
-31.57
-28.80
-25.06
-20.61
-15.74
-10.83
-6.19
-2.06
1.38
4.02
5.74
6.47
6.20
5.08
3.36
1.38
-0.57
-2.36
-3.94
-5.34
-6.61
-7.80
-8.94
-10.17
-11.68
-13.73
-16.49
-20.05
-24.32
-29.05
-33.85
-38.25
-41.87
-44.43
-45.81
-46.09
-45.37
-43.76
-41.39
-38.37
-34.90
-31.32
-27.97
-25.17
-23.14
-21.91
-21.44
-21.61
-22.26
-23.14
-23.89
-24.07
-23.18
-20.87
-16.97
-11.60
-5.14
1.88
8.81
15.03
19.98
23.25
24.64
24.21
22.27
19.36
16.21
13.51
11.81
11.39
12.28
14.26
17.04
20.30
23.75
27.14
30.21
32.77
34.74
36.18
37.17
37.77
37.92
37.44
36.20
34.20
31.66
28.84
26.01
23.28
20.63
18.04
15.49
12.95
10.35
7.41
3.83
-0.65
-5.99
-11.76
-17.23
-21.57
-24.08
-24.35
-22.37
-18.51
-13.33
-7.50
-1.62
3.89
8.80
12.96
16.33
18.82
20.40
21.05
20.88
20.03
18.73
17.12
15.36
13.53
11.69
9.88
8.12
6.43
4.79
3.21
1.60
-0.20
-2.45
-5.39
-9.11
-13.39
-17.65
-21.17
-23.19
-23.25
-21.26
-17.47
-12.40
-6.59
-0.56
5.28
10.58
15.09
18.59
20.94
22.15
22.32
21.73
20.72
19.60
18.55
17.62
16.70
15.66
14.41
12.94
11.29
9.46
7.42
5.11
2.50
-0.45
-3.75
-7.37
-11.30
-15.41
-19.36
-22.65
-24.68
-24.98
-23.35
-19.88
-14.88
-8.80
-2.14
4.60
10.94
16.41
20.67
23.53
25.03
25.37
24.82
23.69
22.26
20.74
19.25
17.82
16.33
14.60
12.49
9.94
7.07
4.09
1.20
-1.49
-4.06
-6.78
-9.96
-13.79
-18.22
-22.83
-27.02
-30.15
-31.74
-31.57
-29.69
-26.25
-21.45
-15.63
-9.23
-2.86
2.76
7.07
9.74
10.88
10.81
10.01
8.89
7.76
6.80
6.07
5.52
5.03
4.40
3.48
2.24
0.75
-0.83
-2.45
-4.21
-6.27
-8.80
-11.86
-15.32
-18.88
-22.12
-24.60
-25.95
-25.87
-24.23
-21.09
-16.72
-11.52
-5.95
-0.45
4.61
8.99
12.50
15.03
16.56
17.06
16.62
15.39
13.58
11.56
9.70
8.30
7.46
7.00
6.57
5.77
4.29
2.04
-0.91
-4.39
-8.26
-12.32
-16.36
-19.98
-22.75
-24.18
-24.02
-22.20
-18.91
-14.52
-9.42
-3.97
1.53
6.91
12.05
16.79
20.88
24.01
25.78
25.96
24.62
22.10
19.01
15.99
13.43
11.51
10.11
8.99
7.86
6.51
4.74
2.41
-0.58
-4.29
-8.65
-13.45
-18.32
-22.73
-26.07
-27.81
-27.65
-25.63
-22.11
-17.64
-12.73
-7.75
-2.84
1.92
6.43
10.48
13.85
16.36
17.92
18.61
18.53
17.80
16.57
15.00
13.30
11.68
10.28
9.08
7.99
6.83
5.46
3.81
1.81
-0.59
-3.46
-6.86
-10.69
-14.65
-18.27
-20.94
-22.14
-21.60
-19.33
-15.63
-10.93
-5.64
-0.12
5.39
10.60
15.18
18.82
21.33
22.74
23.27
23.24
22.87
22.20
21.15
19.64
17.69
15.45
13.15
10.97
9.06
7.46
6.10
4.82
3.36
1.41
-1.26
-4.79
-9.08
-13.84
-18.62
-22.90
-26.12
-27.75
-27.44
-25.08
-20.90
-15.43
-9.33
-3.26
2.28
7.01
10.85
13.79
15.93
17.35
18.14
18.34
17.95
16.96
15.43
13.49
11.33
9.13
6.97
4.85
2.74
0.64
-1.41
-3.44
-5.58
-8.11
-11.31
-15.25
-19.73
-24.22
-28.03
-30.49
-31.11
-29.68
-26.29
-21.33
-15.39
-9.16
-3.24
1.92
6.12
9.30
11.49
12.74
13.17
12.94
12.28
11.45
10.60
9.74
8.77
7.55
5.99
4.10
2.03
-0.10
-2.13
-4.00
-5.76
-7.62
-9.87
-12.77
-16.37
-20.44
-24.44
-27.68
-29.52
-29.59
-27.74
-24.11
-18.99
-12.84
-6.18
0.37
6.22
10.93
14.27
16.26
17.08
16.98
16.20
14.95
13.45
11.88
10.41
9.09
7.86
6.58
5.10
3.34
1.33
-0.83
-3.07
-5.43
-8.02
-10.98
-14.30
-17.81
-21.11
-23.71
-25.14
-25.02
-23.18
-19.64
-14.59
-8.37
-1.45
5.61
12.22
17.91
22.34
25.41
27.24
28.05
28.11
27.60
26.60
25.12
23.17
20.86
18.37
15.95
13.77
11.91
10.28
8.71
6.91
4.59
1.52
-2.38
-6.99
-11.94
-16.69
-20.58
-23.06
-23.78
-22.68
-19.97
-15.98
-11.17
-6.00
-0.93
3.62
7.33
10.06
11.88
12.99
13.59
13.79
13.53
12.71
11.31
9.52
7.67
6.08
4.83
3.78
2.59
0.98
-1.20
-3.85
-6.86
-10.13
-13.62
-17.35
-21.16
-24.73
-27.61
-29.34
-29.62
-28.32
-25.53
-21.53
-16.72
-11.59
-6.67
-2.35
1.11
3.64
5.36
6.39
6.76
6.47
5.47
3.84
1.79
-0.40
-2.47
-4.30
-5.94
-7.50
-9.13
-10.88
-12.79
-14.90
-17.31
-20.15
-23.42
-26.85
-29.85
-31.64
-31.47
-28.97
-24.28
-18.01
-11.02
-4.16
1.98
7.14
11.29
14.50
16.86
18.37
19.01
18.75
17.65
15.90
13.82
11.73
9.92
8.46
7.26
6.11
4.74
3.01
0.88
-1.64
-4.58
-7.92
-11.62
-15.40
-18.74
-20.95
-21.37
-19.66
-15.90
-10.55
-4.31
2.13
8.21
13.54
17.88
21.12
23.21
24.18
24.18
23.39
22.02
20.22
18.15
15.89
13.55
11.19
8.87
6.57
4.24
1.75
-1.05
-4.33
-8.22
-12.62
-17.30
-21.75
-25.35
-27.50
-27.77
-26.04
-22.49
-17.53
-11.67
-5.41
0.80
6.63
11.80
16.13
19.46
21.73
22.95
23.25
22.79
21.81
20.49
18.94
17.19
15.24
13.10
10.83
8.44
5.95
3.25
0.14
-3.53
-7.82
-12.62
-17.56
-22.11
-25.61
-27.51
-27.43
-25.37
-21.66
-16.85
-11.51
-6.06
-0.72
4.45
9.40
13.98
18.03
21.42
24.10
26.09
27.39
27.89
27.43
25.93
23.47
20.36
17.05
14.01
11.56
9.79
8.53
7.44
6.01
3.79
0.45
-4.07
-9.49
-15.28
-20.77
-25.26
-28.19
-29.16
-28.02
-24.90
-20.16
-14.32
-7.97
-1.61
4.42
9.84
14.44
18.04
20.57
22.06
22.66
22.66
22.27
21.62
20.71
19.50
17.97
16.15
14.14
12.04
10.01
8.12
6.38
4.61
2.51
-0.32
-4.17
-9.08
-14.73
-20.46
-25.51
-29.18
-30.94
-30.57
-28.13
-23.91
-18.36
-11.97
-5.25
1.38
7.61
13.18
17.92
21.65
24.26
25.70
26.06
25.52
24.37
22.90
21.36
19.91
18.62
17.46
16.35
15.19
13.94
12.56
11.04
9.31
7.28
4.79
1.66
-2.24
-6.89
-12.04
-17.21
-21.75
-25.02
-26.52
-26.03
-23.63
-19.62
-14.41
-8.46
-2.22
3.92
9.56
14.36
18.10
20.71
22.31
23.13
23.37
23.18
22.58
21.58
20.19
18.49
16.61
14.64
12.66
10.63
8.56
6.39
4.12
1.68
-0.98
-3.97
-7.38
-11.24
-15.45
-19.79
-23.93
-27.40
-29.71
-30.40
-29.23
-26.24
-21.74
-16.26
-10.27
-4.14
1.92
7.73
13.07
17.60
20.98
22.97
23.58
23.04
21.77
20.16
18.53
16.98
15.53
14.07
12.51
10.80
8.98
7.14
5.40
3.86
2.50
1.15
-0.47
-2.73
-5.87
-9.90
-14.57
-19.36
-23.63
-26.78
-28.36
-28.20
-26.33
-23.02
-18.62
-13.53
-8.12
-2.72
2.31
6.59
9.81
11.70
12.28
11.81
10.78
9.71
8.96
8.56
8.31
7.89
7.05
5.73
4.06
2.25
0.55
-0.90
-2.07
-3.05
-4.09
-5.47
-7.42
-10.02
-13.08
-16.27
-19.15
-21.29
-22.37
-22.18
-20.63
-17.79
-13.87
-9.27
-4.46
0.11
4.09
7.31
9.69
11.22
11.93
11.88
11.21
10.16
8.99
7.97
7.25
6.80
6.42
5.82
4.71
2.98
0.78
-1.60
-3.84
-5.81
-7.65
-9.72
-12.29
-15.48
-19.08
-22.76
-26.13
-28.82
-30.55
-30.98
-29.79
-26.80
-22.13
-16.20
-9.69
-3.24
2.66
7.67
11.58
14.24
15.56
15.64
14.86
13.76
12.87
12.42
12.30
12.14
11.57
10.33
8.44
6.11
3.63
1.25
-0.90
-2.86
-4.79
-6.97
-9.69
-13.09
-17.13
-21.55
-25.89
-29.52
-31.79
-32.11
-30.12
-25.87
-19.84
-12.82
-5.67
0.92
6.55
11.09
14.49
16.77
17.95
18.18
17.79
17.17
16.67
16.44
16.34
16.05
15.30
13.88
11.79
9.22
6.45
3.74
1.31
-0.78
-2.68
-4.67
-7.03
-9.95
-13.36
-16.97
-20.33
-22.91
-24.21
-23.85
-21.67
-17.73
-12.39
-6.12
0.49
6.95
12.86
17.87
21.61
23.85
24.49
23.73
22.05
20.06
18.21
16.71
15.42
14.09
12.49
10.50
8.19
5.65
2.93
0.06
-2.99
-6.26
-9.81
-13.65
-17.74
-21.94
-25.92
-29.25
-31.47
-32.14
-31.05
-28.22
-23.89
-18.49
-12.54
-6.55
-1.01
3.75
7.49
10.06
11.36
11.40
10.34
8.46
6.25
4.18
2.65
1.78
1.48
1.44
1.32
0.84
-0.18
-1.83
-4.14
-7.11
-10.60
-14.37
-18.03
-21.05
-22.97
-23.39
-22.14
-19.27
-15.07
-9.98
-4.52
0.82
5.65
9.70
12.87
15.16
16.61
17.29
17.18
16.25
14.47
11.94
8.95
5.95
3.41
1.59
0.44
-0.39
-1.40
-3.01
-5.38
-8.45
-12.04
-15.91
-19.79
-23.30
-25.85
-26.76
-25.53
-22.00
-16.57
-10.02
-3.25
3.03
8.46
12.96
16.62
19.51
21.60
22.81
23.09
22.53
21.32
19.68
17.86
15.97
14.03
12.00
9.83
7.49
4.95
2.17
-0.94
-4.41
-8.18
-12.03
-15.52
-18.22
-19.68
-19.65
-18.03
-14.94
-10.58
-5.33
0.38
6.05
11.17
15.35
18.36
20.10
20.64
20.12
18.82
17.02
15.07
13.20
11.50
9.92
8.31
6.52
4.45
2.00
-0.91
-4.36
-8.34
-12.63
-16.75
-20.10
-22.03
-22.13
-20.29
-16.75
-11.90
-6.23
-0.18
5.86
11.54
16.51
20.49
23.28
24.84
25.33
25.01
24.15
22.94
21.42
19.51
17.19
14.58
11.92
9.54
7.63
6.17
4.84
3.18
0.76
-2.63
-6.90
-11.67
-16.29
-20.02
-22.12
-22.06
-19.64
-14.97
-8.52
-0.89
7.21
15.12
22.09
27.51
30.96
32.40
32.17
30.97
29.50
28.26
27.39
26.74
26.06
25.09
23.64
21.55
18.78
15.38
11.59
7.84
4.55
1.87
-0.39
-2.72
-5.67
-9.56
-14.30
-19.43
-24.23
-27.94
-29.98
-29.94
-27.73
-23.53
-17.78
-11.09
-4.14
2.42
8.01
12.22
14.88
16.06
16.08
15.42
14.50
13.59
12.75
11.83
10.63
9.07
7.13
4.87
2.42
-0.04
-2.37
-4.37
-5.97
-7.27
-8.59
-10.34
-12.88
-16.27
-20.33
-24.55
-28.32
-30.95
-31.89
-30.74
-27.38
-22.03
-15.21
-7.65
-0.19
6.49
11.82
15.48
17.37
17.65
16.71
15.16
13.62
12.52
11.97
11.72
11.35
10.48
8.95
6.84
4.41
1.94
-0.41
-2.56
-4.64
-6.85
-9.41
-12.41
-15.78
-19.20
-22.20
-24.25
-24.90
-23.95
-21.45
-17.62
-12.85
-7.47
-1.82
3.83
9.19
13.99
17.89
20.56
21.87
21.95
21.13
19.88
18.62
17.51
16.51
15.44
14.16
12.62
10.82
8.80
6.55
4.09
1.43
-1.36
-4.21
-7.13
-10.17
-13.41
-16.78
-20.05
-22.88
-24.86
-25.67
-25.08
-22.99
-19.38
-14.41
-8.40
-1.90
4.44
9.99
14.32
17.17
18.48
18.38
17.16
15.23
13.12
11.26
9.89
9.01
8.43
7.84
7.02
5.87
4.34
2.46
0.26
-2.26
-5.10
-8.18
-11.48
-14.91
-18.34
-21.57
-24.24
-25.96
-26.41
-25.38
-22.87
-19.01
-14.02
-8.18
-1.85
4.55
10.51
15.54
19.26
21.46
22.14
21.57
20.22
18.61
17.19
16.18
15.51
14.92
14.10
12.84
11.14
9.08
6.76
4.19
1.34
-1.87
-5.38
-9.08
-12.83
-16.53
-20.11
-23.45
-26.32
-28.34
-29.13
-28.38
-26.01
-22.18
-17.23
-11.63
-5.85
-0.33
4.57
8.58
11.54
13.38
14.15
14.00
13.15
11.84
10.31
8.71
7.12
5.56
3.97
2.33
0.61
-1.22
-3.18
-5.36
-7.86
-10.77
-14.16
-18.02
-22.21
-26.48
-30.45
-33.64
-35.50
-35.61
-33.77
-30.08
-24.96
-19.02
-12.89
-7.06
-1.85
2.63
6.33
9.16
10.93
11.51
10.89
9.29
7.17
5.04
3.26
1.92
0.86
-0.18
-1.40
-2.82
-4.39
-6.11
-8.10
-10.61
-13.85
-17.79
-22.07
-26.10
-29.17
-30.69
-30.28
-27.93
-23.81
-18.31
-11.86
-4.94
1.97
8.41
13.97
18.33
21.33
23.00
23.54
23.24
22.41
21.29
19.97
18.56
17.13
15.76
14.52
13.39
12.23
10.81
8.90
6.36
3.10
-0.84
-5.38
-10.31
-15.29
-19.74
-22.98
-24.31
-23.32
-19.99
-14.75
-8.32
-1.48
5.14
11.15
16.41
20.88
24.56
27.45
29.57
30.93
31.55
31.46
30.69
29.28
27.32
24.96
22.36
19.66
16.96
14.32
11.76
9.27
6.80
4.24
1.41
-1.88
-5.75
-10.15
-14.76
-19.05
-22.34
-24.00
-23.64
-21.21
-17.02
-11.64
-5.64
0.49
6.44
11.99
16.97
21.13
24.22
26.08
26.75
26.44
25.46
24.16
22.72
21.19
19.51
17.62
15.50
13.26
11.05
8.99
7.15
5.43
3.62
1.44
-1.34
-4.80
-8.91
-13.44
-18.04
-22.22
-25.44
-27.17
-27.03
-24.88
-20.92
-15.62
-9.60
-3.43
2.47
7.86
12.56
16.47
19.48
21.49
22.52
22.70
22.27
21.47
20.50
19.45
18.27
16.91
15.33
13.57
11.68
9.77
7.93
6.19
4.54
2.90
1.10
-1.07
-3.83
-7.30
-11.38
-15.73
-19.75
-22.73
-24.11
-23.62
-21.34
-17.63
-12.99
-7.86
-2.57
2.61
7.44
11.64
14.87
16.86
17.52
17.03
15.72
13.98
12.01
9.84
7.32
4.38
1.12
-2.16
-5.01
-7.13
-8.49
-9.41
-10.36
-11.82
-14.06
-17.11
-20.81
-24.92
-29.15
-33.12
-36.38
-38.35
-38.51
-36.58
-32.66
-27.21
-20.93
-14.52
-8.53
-3.31
0.96
4.19
6.36
7.51
7.82
7.52
6.85
6.02
5.09
4.06
2.87
1.53
0.04
-1.54
-3.18
-4.87
-6.68
-8.72
-11.12
-14.00
-17.33
-20.95
-24.54
-27.65
-29.82
-30.60
-29.68
-26.93
-22.53
-16.92
-10.68
-4.47
1.20
5.98
9.73
12.44
14.14
14.93
14.93
14.31
13.25
11.88
10.27
8.47
6.54
4.64
2.92
1.46
0.13
-1.38
-3.48
-6.41
-10.18
-14.47
-18.79
-22.56
-25.36
-26.84
-26.81
-25.17
-21.95
-17.34
-11.70
-5.54
0.63
6.39
11.48
15.79
19.32
22.00
23.73
24.40
24.00
22.69
20.81
18.77
16.86
15.21
13.77
12.38
10.92
9.26
7.28
4.83
1.71
-2.23
-6.97
-12.22
-17.37
-21.68
-24.43
-25.13
-23.63
-20.19
-15.33
-9.74
-4.04
1.36
6.29
10.76
14.81
18.35
21.16
22.94
23.50
22.87
21.27
19.05
16.52
13.89
11.27
8.75
6.48
4.55
2.98
1.60
0.05
-2.10
-5.18
-9.24
-13.94
-18.64
-22.52
-24.79
-24.89
-22.64
-18.25
-12.19
-5.17
2.11
9.05
15.18
20.24
24.11
26.79
28.39
29.07
28.98
28.26
27.06
25.48
23.64
21.59
19.36
17.01
14.59
12.19
9.88
7.65
5.34
2.67
-0.68
-4.84
-9.68
-14.75
-19.40
-22.95
-24.86
-24.86
-22.92
-19.27
-14.31
-8.50
-2.34
3.77
9.46
14.37
18.20
20.70
21.79
21.55
20.30
18.47
16.45
14.52
12.77
11.18
9.67
8.18
6.67
5.06
3.27
1.16
-1.41
-4.54
-8.28
-12.60
-17.33
-22.15
-26.54
-29.90
-31.68
-31.52
-29.34
-25.37
-20.06
-13.98
-7.67
-1.61
3.87
8.53
12.18
14.69
15.97
16.02
14.96
13.04
10.64
8.10
5.73
3.65
1.87
0.28
-1.29
-2.97
-4.88
-7.13
-9.82
-13.09
-17.00
-21.49
-26.27
-30.77
-34.28
-36.10
-35.77
-33.22
-28.84
-23.30
-17.30
-11.40
-5.88
-0.79
3.85
7.93
11.21
13.35
14.08
13.34
11.36
8.58
5.58
2.89
0.88
-0.35
-0.96
-1.29
-1.75
-2.74
-4.57
-7.38
-11.14
-15.58
-20.17
-24.19
-26.79
-27.26
-25.21
-20.75
-14.41
-7.07
0.39
7.28
13.21
18.05
21.89
24.83
26.93
28.22
28.68
28.27
27.05
25.13
22.75
20.22
17.81
15.70
13.94
12.39
10.84
9.01
6.63
3.45
-0.63
-5.52
-10.86
-15.98
-20.07
-22.37
-22.37
-20.00
-15.59
-9.74
-3.13
3.67
10.16
16.01
20.93
24.64
26.98
27.90
27.57
26.28
24.38
22.16
19.80
17.36
14.85
12.30
9.72
7.13
4.46
1.57
-1.73
-5.63
-10.21
-15.33
-20.69
-25.73
-29.83
-32.42
-33.00
-31.39
-27.64
-22.02
-14.99
-7.09
1.10
9.07
16.35
22.57
27.46
30.92
32.93
33.62
33.23
32.07
30.49
28.74
26.97
25.20
23.39
21.51
19.56
17.57
15.44
12.98
9.88
5.91
1.12
-4.17
-9.35
-13.72
-16.69
-17.87
-17.10
-14.44
-10.08
-4.43
1.98
8.50
14.52
19.59
23.60
26.64
28.89
30.39
31.04
30.58
28.90
26.16
22.74
19.15
15.80
12.87
10.35
8.11
6.00
3.88
1.59
-1.08
-4.40
-8.61
-13.70
-19.40
-25.07
-29.87
-32.92
-33.61
-31.76
-27.71
-22.18
-16.06
-10.12
-4.81
-0.33
3.32
6.16
8.15
9.26
9.45
8.79
7.44
5.61
3.46
1.20
-1.07
-3.25
-5.31
-7.23
-9.02
-10.66
-12.18
-13.73
-15.59
-18.11
-21.52
-25.71
-30.14
-33.95
-36.24
-36.38
-34.28
-30.23
-24.88
-18.80
-12.49
-6.27
-0.42
4.76
8.98
11.96
13.61
14.00
13.36
12.03
10.32
8.50
6.81
5.38
4.30
3.57
3.04
2.46
1.49
-0.22
-2.85
-6.39
-10.55
-14.81
-18.52
-21.03
-21.85
-20.74
-17.74
-13.13
-7.34
-0.89
5.72
12.04
17.70
22.35
25.78
27.86
28.65
28.29
27.07
25.36
23.46
21.59
19.86
18.23
16.57
14.73
12.57
9.99
6.92
3.31
-0.90
-5.65
-10.78
-15.85
-20.28
-23.42
-24.71
-23.91
-21.16
-16.93
-11.82
-6.44
-1.25
3.46
7.57
10.97
13.64
15.59
16.91
17.69
18.05
18.06
17.71
16.97
15.84
14.34
12.51
10.43
8.14
5.69
3.15
0.54
-2.26
-5.39
-9.07
-13.30
-17.81
-22.03
-25.24
-26.83
-26.48
-24.22
-20.34
-15.32
-9.66
-3.82
1.75
6.66
10.64
13.52
15.30
16.07
16.01
15.40
14.52
13.64
12.84
12.09
11.13
9.72
7.74
5.26
2.54
-0.18
-2.76
-5.20
-7.61
-10.16
-12.92
-15.90
-18.96
-21.86
-24.16
-25.35
-24.96
-22.71
-18.70
-13.33
-7.22
-0.96
4.98
10.32
14.92
18.65
21.41
23.07
23.64
23.24
22.10
20.54
18.85
17.20
15.66
14.21
12.83
11.47
10.14
8.77
7.29
5.54
3.39
0.73
-2.47
-6.20
-10.31
-14.61
-18.70
-22.02
-23.96
-24.00
-21.94
-17.99
-12.75
-6.94
-1.22
3.96
8.44
12.12
14.97
16.87
17.71
17.46
16.30
14.54
12.61
10.83
9.37
8.15
6.96
5.53
3.68
1.41
-1.11
-3.66
-6.07
-8.37
-10.74
-13.40
-16.52
-19.98
-23.53
-26.69
-29.02
-30.16
-29.94
-28.29
-25.28
-21.13
-16.11
-10.65
-5.19
-0.20
3.93
6.96
8.77
9.37
8.93
7.69
5.89
3.79
1.62
-0.44
-2.26
-3.75
-4.86
-5.66
-6.26
-6.89
-7.78
-9.21
-11.37
-14.32
-17.96
-21.92
-25.63
-28.43
-29.76
-29.26
-26.94
-23.12
-18.30
-13.00
-7.68
-2.67
1.79
5.52
8.35
10.15
10.84
10.45
9.13
7.15
4.84
2.52
0.43
-1.34
-2.78
-3.93
-4.83
-5.57
-6.30
-7.31
-8.98
-11.61
-15.28
-19.65
-24.03
-27.49
-29.22
-28.71
-25.94
-21.33
-15.51
-9.14
-2.75
3.30
8.81
13.56
17.42
20.20
21.83
22.36
21.98
20.97
19.59
18.07
16.58
15.16
13.75
12.22
10.42
8.23
5.57
2.42
-1.25
-5.43
-10.05
-14.90
-19.56
-23.43
-25.84
-26.26
-24.49
-20.74
-15.56
-9.69
-3.82
1.56
6.21
10.09
13.30
15.93
18.04
19.58
20.47
20.60
19.94
18.54
16.61
14.39
12.07
9.79
7.58
5.35
2.99
0.35
-2.72
-6.32
-10.47
-15.03
-19.61
-23.66
-26.51
-27.55
-26.51
-23.47
-18.85
-13.25
-7.29
-1.45
3.94
8.71
12.72
15.86
17.96
18.94
18.78
17.64
15.79
13.55
11.16
8.77
6.44
4.27
2.41
1.01
0.07
-0.68
-1.78
-3.82
-7.17
-11.78
-17.11
-22.23
-26.14
-28.04
-27.44
-24.34
-19.08
-12.34
-4.91
2.37
8.84
14.11
18.03
20.73
22.39
23.27
23.55
23.34
22.66
21.51
19.90
17.88
15.59
13.21
10.88
8.69
6.55
4.33
1.80
-1.22
-4.80
-8.91
-13.42
-18.02
-22.35
-25.89
-28.07
-28.40
-26.58
-22.65
-16.96
-10.17
-2.99
3.89
10.00
15.06
18.96
21.70
23.33
23.97
23.82
23.15
22.21
21.18
20.09
18.86
17.41
15.70
13.80
11.78
9.71
7.55
5.16
2.41
-0.79
-4.47
-8.55
-12.85
-17.07
-20.78
-23.41
-24.40
-23.38
-20.30
-15.48
-9.49
-2.97
3.51
9.52
14.77
19.04
22.15
24.01
24.70
24.42
23.48
22.17
20.69
19.14
17.51
15.74
13.83
11.80
9.78
7.89
6.19
4.63
3.06
1.18
-1.29
-4.55
-8.59
-13.17
-17.80
-21.84
-24.62
-25.64
-24.72
-21.97
-17.77
-12.55
-6.65
-0.30
6.24
12.60
18.20
22.39
24.67
24.98
23.65
21.39
18.88
16.67
15.02
13.88
13.08
12.31
11.30
9.84
7.87
5.53
3.09
0.76
-1.41
-3.61
-6.11
-9.17
-12.81
-16.80
-20.71
-24.04
-26.32
-27.17
-26.33
-23.72
-19.50
-14.08
-7.97
-1.73
4.21
9.55
14.03
17.41
19.54
20.35
20.01
18.91
17.51
16.18
15.10
14.21
13.29
12.12
10.59
8.71
6.61
4.45
2.38
0.45
-1.44
-3.52
-6.07
-9.32
-13.27
-17.67
-22.06
-25.83
-28.37
-29.25
-28.24
-25.39
-20.99
-15.48
-9.36
-3.11
2.89
8.31
12.85
16.25
18.32
19.06
18.64
17.47
16.03
14.72
13.77
13.10
12.50
11.72
10.63
9.23
7.66
6.04
4.42
2.74
0.82
-1.52
-4.39
-7.85
-11.79
-16.03
-20.27
-24.08
-26.99
-28.54
-28.40
-26.47
-22.90
-18.01
-12.22
-5.97
0.32
6.22
11.31
15.23
17.75
18.90
18.92
18.19
17.14
16.09
15.17
14.37
13.53
12.47
11.05
9.22
7.03
4.65
2.29
0.06
-1.99
-3.97
-6.06
-8.42
-11.19
-14.42
-18.11
-22.15
-26.30
-30.16
-33.12
-34.61
-34.14
-31.58
-27.13
-21.31
-14.78
-8.15
-1.88
3.76
8.63
12.66
15.80
18.03
19.35
19.86
19.70
19.11
18.34
17.54
16.82
16.14
15.39
14.42
13.10
11.37
9.25
6.87
4.44
2.10
-0.11
-2.34
-4.89
-8.10
-12.12
-16.85
-21.87
-26.54
-30.19
-32.23
-32.32
-30.35
-26.49
-21.12
-14.76
-7.98
-1.32
4.82
10.19
14.67
18.18
20.68
22.20
22.87
22.90
22.55
22.05
21.47
20.76
19.80
18.51
16.93
15.22
13.56
12.07
10.71
9.31
7.60
5.40
2.59
-0.81
-4.66
-8.82
-13.13
-17.37
-21.27
-24.43
-26.43
-26.93
-25.79
-23.13
-19.28
-14.67
-9.74
-4.85
-0.31
3.57
6.51
8.25
8.72
7.99
6.38
4.27
2.12
0.26
-1.17
-2.24
-3.16
-4.21
-5.55
-7.20
-9.03
-10.89
-12.79
-14.94
-17.61
-21.04
-25.13
-29.48
-33.43
-36.39
-37.89
-37.78
-36.15
-33.19
-29.12
-24.24
-18.78
-13.05
-7.42
-2.20
2.32
5.92
8.46
9.85
10.07
9.27
7.77
5.97
4.35
3.22
2.67
2.56
2.58
2.40
1.74
0.48
-1.37
-3.73
-6.44
-9.38
-12.36
-15.19
-17.66
-19.48
-20.33
-19.94
-18.15
-15.08
-11.02
-6.37
-1.50
3.39
8.20
12.86
17.23
21.04
23.97
25.81
26.55
26.33
25.41
24.05
22.38
20.49
18.43
16.25
14.02
11.82
9.72
7.72
5.76
3.66
1.19
-1.89
-5.67
-10.02
-14.53
-18.63
-21.70
-23.26
-23.05
-21.15
-17.74
-13.13
-7.67
-1.68
4.48
10.39
15.63
19.82
22.76
24.44
24.99
24.70
23.82
22.55
21.04
19.36
17.57
15.71
13.86
12.07
10.37
8.75
7.11
5.28
3.01
0.06
-3.69
-8.15
-12.94
-17.48
-20.99
-22.83
-22.58
-20.19
-15.99
-10.57
-4.57
1.47
7.19
12.39
16.89
20.57
23.31
25.08
25.97
26.18
25.93
25.39
24.63
23.59
22.23
20.52
18.54
16.37
14.08
11.68
9.13
6.42
3.54
0.49
-2.74
-6.24
-10.11
-14.31
-18.56
-22.35
-24.99
-25.89
-24.78
-21.76
-17.26
-11.82
-5.90
0.17
6.12
11.68
16.48
20.17
22.49
23.40
23.15
22.10
20.69
19.19
17.75
16.29
14.68
12.84
10.76
8.55
6.40
4.43
2.70
1.09
-0.66
-2.90
-5.96
-10.11
-15.32
-21.22
-27.06
-31.88
-34.78
-35.18
-33.05
-28.85
-23.28
-17.07
-10.78
-4.76
0.67
5.23
8.63
10.65
11.27
10.71
9.41
7.83
6.34
5.09
4.01
2.88
1.47
-0.28
-2.29
-4.29
-6.04
-7.44
-8.65
-10.07
-12.17
-15.29
-19.45
-24.29
-29.19
-33.44
-36.35
-37.47
-36.59
-33.75
-29.18
-23.31
-16.62
-9.67
-2.96
3.06
8.05
11.80
14.27
15.60
16.01
15.78
15.15
14.25
13.12
11.73
10.11
8.32
6.44
4.52
2.57
0.54
-1.61
-3.95
-6.55
-9.57
-13.09
-17.10
-21.32
-25.23
-28.15
-29.36
-28.37
-24.98
-19.36
-12.02
-3.68
4.85
12.86
19.79
25.32
29.39
32.09
33.55
33.93
33.35
32.02
30.17
28.11
26.06
24.17
22.42
20.73
18.93
16.86
14.42
11.53
8.14
4.26
-0.11
-4.98
-10.26
-15.69
-20.79
-24.92
-27.46
-27.98
-26.41
-22.95
-17.96
-11.80
-4.80
2.62
9.92
16.47
21.65
25.10
26.78
26.92
25.97
24.36
22.38
20.28
18.17
16.12
14.14
12.19
10.17
7.95
5.41
2.38
-1.20
-5.33
-9.89
-14.69
-19.54
-24.24
-28.61
-32.38
-35.13
-36.34
-35.63
-32.87
-28.23
-22.11
-14.94
-7.07
1.20
9.49
17.24
23.80
28.56
31.25
31.96
31.13
29.40
27.33
25.30
23.48
21.83
20.17
18.33
16.21
13.82
11.33
8.91
6.64
4.40
1.87
-1.39
-5.70
-11.06
-17.16
-23.32
-28.66
-32.34
-33.70
-32.48
-28.75
-22.91
-15.56
-7.32
1.23
9.56
17.23
23.77
28.80
32.05
33.49
33.40
32.23
30.52
28.65
26.86
25.15
23.48
21.79
20.07
18.33
16.50
14.46
12.08
9.31
6.13
2.61
-1.30
-5.63
-10.46
-15.68
-20.93
-25.62
-29.05
-30.65
-30.09
-27.38
-22.78
-16.70
-9.64
-2.14
5.24
11.94
17.48
21.54
24.01
24.99
24.69
23.42
21.51
19.31
17.10
15.14
13.52
12.16
10.91
9.59
8.09
6.38
4.46
2.28
-0.31
-3.47
-7.29
-11.65
-16.26
-20.68
-24.37
-26.83
-27.65
-26.64
-23.83
-19.47
-13.99
-7.85
-1.46
4.80
10.61
15.58
19.33
21.58
22.26
21.56
19.77
17.21
14.08
10.54
6.81
3.21
0.11
-2.25
-3.87
-5.06
-6.28
-7.99
-10.60
-14.32
-19.22
-25.13
-31.69
-38.13
-43.44
-46.57
-46.77
-43.87
-38.35
-31.17
-23.40
-15.93
-9.24
-3.50
1.32
5.28
8.33
10.37
11.30
11.07
9.82
7.80
5.31
2.68
0.16
-2.12
-4.19
-6.16
-8.16
-10.29
-12.62
-15.25
-18.35
-22.06
-26.42
-31.16
-35.67
-39.08
-40.53
-39.42
-35.61
-29.39
-21.39
-12.43
-3.31
5.26
12.72
18.76
23.25
26.24
27.90
28.44
28.12
27.22
25.95
24.50
22.92
21.18
19.18
16.89
14.38
11.77
9.19
6.60
3.80
0.50
-3.50
-8.09
-12.87
-17.12
-20.04
-20.95
-19.52
-15.83
-10.32
-3.67
3.40
10.28
16.56
21.98
26.38
29.64
31.61
32.22
31.44
29.42
26.48
23.05
19.63
16.58
14.05
11.92
9.91
7.67
4.97
1.73
-2.01
-6.21
-10.87
-15.98
-21.36
-26.52
-30.73
-33.14
-33.11
-30.49
-25.65
-19.30
-12.22
-4.99
2.06
8.80
15.08
20.65
25.11
28.12
29.51
29.41
28.14
26.13
23.73
21.18
18.57
15.96
13.42
11.07
9.00
7.18
5.41
3.41
0.81
-2.66
-7.08
-12.25
-17.73
-22.85
-26.81
-28.89
-28.65
-26.02
-21.36
-15.28
-8.39
-1.20
5.95
12.78
19.00
24.24
28.18
30.65
31.76
31.82
31.22
30.29
29.23
28.08
26.83
25.43
23.88
22.15
20.23
18.10
15.76
13.16
10.24
6.95
3.24
-0.88
-5.26
-9.75
-14.10
-18.01
-21.17
-23.21
-23.76
-22.54
-19.46
-14.71
-8.70
-2.00
4.84
11.35
17.22
22.19
26.07
28.69
29.97
29.98
28.98
27.36
25.56
23.85
22.32
20.82
19.10
17.01
14.60
12.08
9.73
7.76
6.14
4.60
2.75
0.21
-3.28
-7.71
-12.85
-18.18
-23.04
-26.74
-28.70
-28.60
-26.46
-22.61
-17.57
-11.87
-5.95
-0.14
5.29
10.07
13.86
16.41
17.60
17.54
16.58
15.15
13.56
11.94
10.22
8.31
6.19
4.02
1.98
0.21
-1.32
-2.73
-4.21
-5.88
-7.85
-10.20
-13.07
-16.52
-20.52
-24.72
-28.55
-31.34
-32.53
-31.88
-29.50
-25.72
-21.02
-15.84
-10.54
-5.41
-0.67
3.53
7.07
9.83
11.70
12.62
12.59
11.79
10.46
8.89
7.28
5.72
4.17
2.56
0.91
-0.67
-2.04
-3.12
-4.07
-5.21
-6.99
-9.76
-13.65
-18.43
-23.55
-28.22
-31.65
-33.25
-32.75
-30.29
-26.29
-21.30
-15.88
-10.45
-5.32
-0.69
3.25
6.35
8.45
9.50
9.55
8.74
7.37
5.76
4.16
2.71
1.44
0.33
-0.63
-1.41
-1.97
-2.37
-2.87
-3.84
-5.65
-8.49
-12.26
-16.59
-20.96
-24.83
-27.70
-29.19
-28.99
-26.95
-23.17
-18.04
-12.19
-6.38
-1.21
3.03
6.30
8.80
10.67
12.00
12.69
12.66
11.88
10.51
8.82
7.09
5.50
4.09
2.74
1.32
-0.31
-2.12
-4.07
-6.10
-8.27
-10.69
-13.51
-16.75
-20.23
-23.53
-26.05
-27.19
-26.48
-23.75
-19.20
-13.37
-6.92
-0.55
5.21
9.99
13.66
16.16
17.51
17.79
17.15
15.83
14.15
12.37
10.68
9.08
7.50
5.79
3.82
1.49
-1.23
-4.34
-7.76
-11.33
-14.89
-18.29
-21.40
-24.03
-25.94
-26.81
-26.29
-24.18
-20.53
-15.69
-10.18
-4.56
0.81
5.72
10.08
13.76
16.54
18.14
18.36
17.24
15.13
12.60
10.21
8.34
7.06
6.13
5.22
4.09
2.65
0.88
-1.24
-3.84
-7.04
-10.77
-14.63
-17.84
-19.56
-19.17
-16.61
-12.35
-7.19
-1.89
3.06
7.46
11.32
14.60
17.17
18.91
19.75
19.75
19.13
18.09
16.78
15.26
13.53
11.61
9.53
7.32
4.94
2.35
-0.58
-3.90
-7.60
-11.55
-15.52
-19.17
-22.10
-23.94
-24.44
-23.50
-21.20
-17.75
-13.44
-8.63
-3.70
0.93
4.84
7.66
9.21
9.46
8.64
7.12
5.26
3.39
1.67
0.13
-1.30
-2.70
-4.17
-5.77
-7.59
-9.69
-12.15
-15.05
-18.45
-22.25
-26.20
-29.88
-32.73
-34.24
-34.06
-32.08
-28.46
-23.54
-17.76
-11.57
-5.37
0.47
5.63
9.77
12.68
14.21
14.35
13.25
11.19
8.54
5.75
3.20
1.13
-0.33
-1.28
-1.94
-2.70
-4.00
-6.23
-9.63
-14.14
-19.38
-24.65
-29.12
-32.02
-32.75
-31.07
-27.12
-21.32
-14.28
-6.74
0.66
7.32
12.80
16.86
19.39
20.52
20.48
19.69
18.49
17.19
15.91
14.61
13.21
11.60
9.75
7.65
5.36
2.86
0.14
-2.82
-6.02
-9.39
-12.75
-15.83
-18.27
-19.66
-19.65
-17.94
-14.45
-9.24
-2.57
5.16
13.38
21.42
28.57
34.18
37.85
39.50
39.38
38.00
35.91
33.57
31.28
29.15
27.16
25.19
23.13
20.81
18.10
14.87
11.01
6.50
1.40
-4.08
-9.64
-14.85
-19.22
-22.29
-23.71
-23.24
-20.81
-16.55
-10.70
-3.69
3.94
11.58
18.67
24.72
29.40
32.53
34.13
34.35
33.44
31.73
29.51
27.03
24.47
21.94
19.49
17.17
14.95
12.73
10.37
7.67
4.46
0.65
-3.81
-8.86
-14.36
-20.01
-25.32
-29.66
-32.38
-33.00
-31.35
-27.59
-22.13
-15.47
-8.12
-0.55
6.85
13.70
19.71
24.67
28.48
31.12
32.61
33.03
32.46
31.08
29.06
26.60
23.82
20.84
17.81
15.00
12.68
11.04
10.07
9.46
8.74
7.44
5.25
2.07
-1.96
-6.57
-11.31
-15.66
-19.08
-21.02
-21.12
-19.26
-15.59
-10.51
-4.51
2.00
8.69
15.30
21.67
27.53
32.50
36.16
38.17
38.37
36.94
34.32
31.09
27.78
24.66
21.82
19.23
16.85
14.71
12.79
10.97
8.98
6.49
3.24
-0.87
-5.70
-10.98
-16.47
-21.93
-27.22
-32.13
-36.43
-39.75
-41.75
-42.15
-40.77
-37.64
-32.92
-26.91
-20.07
-12.96
-6.18
-0.27
4.39
7.70
9.75
10.83
11.24
11.23
10.90
10.31
9.46
8.39
7.20
5.93
4.59
3.13
1.51
-0.29
-2.20
-4.16
-6.26
-8.71
-11.78
-15.60
-20.01
-24.56
-28.66
-31.77
-33.57
-33.96
-32.94
-30.56
-26.86
-21.94
-16.11
-9.89
-3.92
1.17
4.91
7.17
8.06
7.90
7.08
5.95
4.70
3.40
1.98
0.48
-0.98
-2.21
-3.07
-3.61
-4.14
-5.10
-6.84
-9.57
-13.17
-17.38
-21.83
-26.18
-30.07
-33.11
-34.90
-35.04
-33.27
-29.60
-24.27
-17.76
-10.69
-3.61
2.96
8.72
13.48
17.13
19.58
20.80
20.76
19.61
17.65
15.29
12.96
10.96
9.34
8.02
6.88
5.79
4.64
3.26
1.37
-1.37
-5.16
-9.91
-15.16
-20.13
-23.96
-25.89
-25.45
-22.64
-17.80
-11.56
-4.72
2.02
8.14
13.37
17.66
21.06
23.64
25.46
26.54
26.91
26.69
25.96
24.86
23.45
21.72
19.62
17.11
14.18
10.93
7.54
4.15
0.83
-2.56
-6.26
-10.54
-15.43
-20.57
-25.24
-28.57
-29.82
-28.61
-25.01
-19.47
-12.63
-5.20
2.21
9.05
14.89
19.47
22.68
24.59
25.45
25.59
25.34
24.98
24.57
24.04
23.14
21.65
19.40
16.44
12.98
9.30
5.64
2.12
-1.26
-4.61
-8.03
-11.63
-15.42
-19.35
-23.11
-26.28
-28.24
-28.47
-26.65
-22.86
-17.47
-11.01
-4.06
2.90
9.46
15.25
19.95
23.38
25.51
26.52
26.74
26.45
25.85
24.98
23.78
22.19
20.26
18.07
15.76
13.45
11.14
8.73
6.07
2.99
-0.66
-4.93
-9.78
-15.05
-20.41
-25.41
-29.49
-32.10
-32.84
-31.57
-28.42
-23.76
-17.99
-11.51
-4.66
2.17
8.59
14.10
18.30
20.95
22.09
22.00
21.12
19.88
18.60
17.45
16.45
15.48
14.43
13.18
11.69
9.98
8.08
5.98
3.55
0.58
-3.11
-7.56
-12.61
-17.89
-22.88
-27.06
-29.96
-31.22
-30.69
-28.32
-24.30
-18.95
-12.74
-6.17
0.26
6.11
11.01
14.65
16.93
17.89
17.79
17.04
16.02
15.04
14.23
13.53
12.77
11.76
10.35
8.51
6.33
4.00
1.71
-0.40
-2.43
-4.60
-7.28
-10.67
-14.76
-19.27
-23.60
-27.12
-29.24
-29.56
-27.96
-24.55
-19.67
-13.78
-7.31
-0.67
5.75
11.61
16.53
20.18
22.36
23.09
22.66
21.50
20.04
18.51
16.90
15.07
12.92
10.48
8.00
5.73
3.89
2.46
1.19
-0.26
-2.26
-5.08
-8.79
-13.28
-18.22
-23.14
-27.41
-30.38
-31.52
-30.51
-27.40
-22.57
-16.57
-9.97
-3.25
3.26
9.26
14.42
18.37
20.84
21.82
21.61
20.72
19.71
18.92
18.44
18.14
17.83
17.35
16.57
15.45
13.91
11.90
9.47
6.77
3.96
1.14
-1.69
-4.65
-7.81
-11.14
-14.39
-17.18
-19.11
-19.85
-19.19
-17.13
-13.82
-9.53
-4.61
0.60
5.79
10.65
14.89
18.18
20.25
20.96
20.43
18.95
16.99
14.94
13.07
11.51
10.22
9.11
8.03
6.86
5.45
3.73
1.69
-0.64
-3.24
-6.19
-9.63
-13.63
-18.08
-22.60
-26.58
-29.44
-30.75
-30.37
-28.44
-25.22
-20.96
-15.95
-10.53
-5.11
-0.22
3.69
6.34
7.74
8.11
7.74
6.88
5.66
4.14
2.38
0.55
-1.08
-2.30
-3.03
-3.46
-3.96
-4.95
-6.71
-9.31
-12.59
-16.34
-20.36
-24.46
-28.43
-31.85
-34.22
-34.96
-33.77
-30.64
-25.99
-20.44
-14.60
-8.93
-3.70
0.91
4.71
7.45
8.99
9.35
8.80
7.72
6.44
5.09
3.55
1.68
-0.60
-3.15
-5.66
-7.82
-9.57
-11.07
-12.65
-14.66
-17.26
-20.39
-23.80
-27.13
-29.89
-31.55
-31.59
-29.66
-25.77
-20.35
-14.11
-7.85
-2.11
2.86
7.09
10.61
13.37
15.21
16.10
16.19
15.80
15.25
14.69
13.98
12.90
11.29
9.19
6.87
4.58
2.42
0.37
-1.72
-3.99
-6.48
-9.15
-11.95
-14.70
-17.12
-18.75
-19.06
-17.59
-14.19
-9.03
-2.64
4.26
10.93
16.79
21.45
24.74
26.72
27.54
27.41
26.52
25.05
23.20
21.20
19.31
17.67
16.23
14.81
13.14
11.04
8.45
5.46
2.15
-1.48
-5.43
-9.64
-13.86
-17.67
-20.54
-22.00
-21.78
-19.92
-16.64
-12.33
-7.42
-2.28
2.87
7.90
12.64
16.87
20.25
22.41
23.10
22.35
20.46
17.91
15.25
12.90
11.12
9.95
9.26
8.79
8.19
7.10
5.22
2.44
-1.24
-5.62
-10.41
-15.21
-19.42
-22.37
-23.42
-22.18
-18.68
-13.39
-7.07
-0.48
5.80
11.50
16.53
20.80
24.15
26.38
27.33
27.05
25.75
23.82
21.64
19.46
17.36
15.35
13.39
11.45
9.58
7.78
6.00
4.08
1.78
-1.18
-5.04
-9.82
-15.28
-20.89
-25.89
-29.48
-31.03
-30.23
-27.22
-22.50
-16.77
-10.73
-4.96
0.18
4.52
7.98
10.53
12.10
12.68
12.34
11.23
9.54
7.48
5.21
2.83
0.44
-1.92
-4.23
-6.51
-8.81
-11.15
-13.51
-15.93
-18.46
-21.28
-24.53
-28.20
-32.01
-35.32
-37.35
-37.42
-35.21
-30.84
-24.83
-17.88
-10.70
-3.87
2.22
7.35
11.42
14.41
16.33
17.29
17.38
16.73
15.53
13.99
12.31
10.67
9.17
7.81
6.49
5.03
3.24
0.94
-2.03
-5.73
-10.15
-15.07
-20.10
-24.67
-28.08
-29.73
-29.20
-26.42
-21.64
-15.38
-8.22
-0.73
6.58
13.31
19.15
23.82
27.17
29.17
29.94
29.66
28.55
26.82
24.60
22.02
19.25
16.47
13.88
11.55
9.44
7.38
5.09
2.31
-1.13
-5.32
-10.19
-15.58
-21.16
-26.39
-30.59
-33.03
-33.20
-30.96
-26.56
-20.54
-13.53
-6.05
1.54
8.86
15.51
20.99
24.91
27.08
27.68
27.12
25.88
24.38
22.78
21.08
19.22
17.17
14.93
12.61
10.27
7.95
5.59
3.05
0.10
-3.47
-7.74
-12.59
-17.69
-22.58
-26.80
-29.91
-31.52
-31.27
-28.85
-24.15
-17.39
-9.07
-0.01
8.90
16.87
23.32
27.90
30.53
31.39
30.90
29.68
28.36
27.41
26.93
26.73
26.39
25.54
23.94
21.53
18.49
15.09
11.57
8.19
5.00
1.91
-1.31
-4.93
-9.12
-13.80
-18.68
-23.25
-26.86
-28.87
-28.73
-26.11
-21.04
-13.95
-5.56
3.24
11.60
18.89
24.65
28.67
30.94
31.64
31.12
29.85
28.24
26.60
25.07
23.63
22.15
20.51
18.54
16.11
13.20
9.91
6.49
3.20
0.14
-2.85
-6.17
-10.23
-15.19
-20.82
-26.57
-31.73
-35.61
-37.66
-37.53
-35.05
-30.36
-23.88
-16.28
-8.37
-0.93
5.47
10.42
13.72
15.37
15.53
14.55
12.94
11.23
9.79
8.73
7.95
7.21
6.28
5.01
3.32
1.21
-1.27
-4.05
-7.11
-10.48
-14.26
-18.52
-23.21
-28.04
-32.42
-35.69
-37.18
-36.43
-33.28
-27.89
-20.69
-12.35
-3.62
4.68
11.85
17.41
21.16
23.10
23.41
22.40
20.47
18.03
15.54
13.34
11.58
10.22
9.00
7.65
5.92
3.68
0.91
-2.40
-6.23
-10.57
-15.35
-20.40
-25.36
-29.71
-32.81
-34.08
-33.11
-29.89
-24.72
-18.20
-10.97
-3.65
3.31
9.62
15.07
19.53
22.91
25.16
26.28
26.32
25.35
23.54
21.14
18.47
15.89
13.63
11.73
9.98
8.10
5.77
2.83
-0.76
-4.97
-9.72
-14.82
-19.93
-24.48
-27.72
-28.97
-27.75
-24.02
-18.20
-10.98
-3.17
4.53
11.65
17.95
23.29
27.57
30.72
32.68
33.48
33.21
32.04
30.20
27.86
25.13
22.14
18.99
15.83
12.81
10.01
7.42
4.86
2.05
-1.36
-5.61
-10.75
-16.50
-22.29
-27.25
-30.53
-31.45
-29.76
-25.67
-19.73
-12.64
-5.05
2.54
9.71
16.10
21.36
25.20
27.50
28.34
28.01
26.89
25.32
23.52
21.58
19.53
17.35
15.09
12.83
10.64
8.48
6.30
3.98
1.34
-1.75
-5.38
-9.59
-14.28
-19.15
-23.72
-27.30
-29.13
-28.64
-25.58
-20.16
-12.97
-4.83
3.52
11.42
18.40
24.05
28.00
30.06
30.30
29.10
27.15
25.14
23.55
22.49
21.74
20.95
19.83
18.27
16.28
13.96
11.40
8.59
5.55
2.23
-1.45
-5.52
-10.00
-14.73
-19.42
-23.64
-26.92
-28.82
-29.03
-27.42
-24.02
-19.05
-12.94
-6.22
0.50
6.61
11.65
15.24
17.24
17.66
16.80
15.05
12.92
10.83
8.97
7.33
5.76
4.03
2.05
-0.26
-2.87
-5.68
-8.56
-11.38
-14.08
-16.73
-19.54
-22.74
-26.36
-30.07
-33.22
-35.11
-35.20
-33.37
-29.81
-24.87
-18.77
-11.67
-3.78
4.44
12.22
18.60
22.81
24.49
23.80
21.40
18.15
14.84
12.05
10.06
8.79
7.95
7.21
6.21
4.77
2.70
-0.10
-3.69
-8.06
-13.10
-18.54
-23.97
-28.89
-32.75
-35.04
-35.35
-33.48
-29.59
-24.12
-17.74
-11.04
-4.49
1.73
7.53
12.77
17.20
20.50
22.41
22.86
21.94
19.86
16.95
13.55
10.09
7.01
4.62
2.97
1.82
0.71
-0.86
-3.23
-6.56
-10.85
-15.93
-21.44
-26.84
-31.35
-34.16
-34.61
-32.48
-28.04
-22.01
-15.24
-8.50
-2.32
3.07
7.62
11.37
14.34
16.52
17.87
18.33
17.90
16.64
14.72
12.29
9.54
6.63
3.78
1.18
-1.01
-2.74
-4.20
-5.71
-7.69
-10.39
-13.81
-17.59
-21.16
-23.83
-24.97
-24.12
-21.05
-15.90
-9.13
-1.51
6.07
12.78
18.05
21.56
23.26
23.34
22.10
19.98
17.41
14.85
12.57
10.72
9.31
8.19
7.16
5.91
4.16
1.76
-1.21
-4.52
-7.87
-11.08
-14.14
-17.12
-19.95
-22.21
-23.23
-22.44
-19.59
-14.92
-9.02
-2.53
4.10
10.60
16.76
22.27
26.69
29.62
30.83
30.37
28.50
25.69
22.46
19.34
16.80
15.08
14.16
13.72
13.26
12.28
10.49
7.78
4.25
0.02
-4.77
-9.95
-15.20
-20.04
-23.86
-26.10
-26.39
-24.71
-21.35
-16.85
-11.76
-6.55
-1.52
3.20
7.47
11.14
13.91
15.53
15.84
14.90
12.97
10.47
7.77
5.18
2.85
0.80
-1.00
-2.62
-4.12
-5.61
-7.21
-9.07
-11.40
-14.42
-18.26
-22.77
-27.54
-31.86
-34.95
-36.20
-35.35
-32.51
-28.07
-22.53
-16.41
-10.22
-4.41
0.56
4.36
6.83
8.05
8.27
7.80
6.91
5.73
4.34
2.78
1.14
-0.49
-2.05
-3.52
-4.97
-6.57
-8.46
-10.81
-13.65
-16.95
-20.58
-24.32
-27.86
-30.83
-32.76
-33.12
-31.57
-27.97
-22.58
-15.92
-8.65
-1.45
5.19
10.90
15.40
18.47
20.02
20.12
19.09
17.41
15.61
14.09
12.96
12.10
11.28
10.27
8.92
7.14
4.85
1.98
-1.53
-5.61
-10.02
-14.36
-18.14
-20.86
-22.17
-21.88
-19.96
-16.55
-11.93
-6.46
-0.58
5.26
10.65
15.28
18.97
21.64
23.26
23.87
23.53
22.35
20.54
18.33
16.00
13.75
11.69
9.81
8.01
6.14
4.03
1.50
-1.64
-5.54
-10.09
-14.97
-19.52
-22.95
-24.52
-23.89
-21.19
-16.94
-11.87
-6.60
-1.56
3.04
7.12
10.61
13.42
15.49
16.84
17.51
17.53
16.94
15.73
13.98
11.88
9.69
7.66
5.90
4.32
2.70
0.79
-1.59
-4.47
-7.81
-11.47
-15.26
-18.89
-22.00
-24.10
-24.74
-23.61
-20.62
-15.99
-10.16
-3.69
2.84
8.91
14.17
18.33
21.28
22.99
23.56
23.16
22.03
20.43
18.54
16.53
14.46
12.36
10.22
8.05
5.87
3.72
1.62
-0.44
-2.58
-5.00
-7.94
-11.48
-15.46
-19.42
-22.70
-24.64
-24.79
-23.01
-19.45
-14.46
-8.42
-1.72
5.27
12.17
18.56
24.01
28.15
30.73
31.70
31.24
29.74
27.70
25.64
23.86
22.48
21.32
20.13
18.67
16.82
14.66
12.27
9.74
7.06
4.15
1.00
-2.42
-6.11
-10.08
-14.31
-18.63
-22.70
-25.92
-27.68
-27.48
-25.14
-20.91
-15.28
-8.91
-2.41
3.71
9.09
13.43
16.54
18.36
18.93
18.51
17.47
16.27
15.35
14.95
15.07
15.41
15.55
15.09
13.89
12.05
9.90
7.78
5.89
4.20
2.52
0.54
-1.97
-5.13
-8.87
-12.97
-17.07
-20.75
-23.52
-24.98
-24.87
-23.09
-19.80
-15.33
-10.10
-4.57
0.91
6.03
10.57
14.33
17.09
18.72
19.22
18.74
17.64
16.32
15.08
14.04
13.11
12.08
10.77
9.09
7.08
4.89
2.68
0.60
-1.29
-3.00
-4.67
-6.50
-8.79
-11.78
-15.54
-19.91
-24.46
-28.53
-31.44
-32.62
-31.72
-28.78
-24.13
-18.29
-11.87
-5.43
0.61
5.94
10.31
13.55
15.53
16.28
15.96
14.92
13.52
12.11
10.89
9.93
9.18
8.48
7.71
6.72
5.45
3.90
2.14
0.29
-1.62
-3.63
-5.89
-8.56
-11.76
-15.52
-19.70
-24.00
-28.02
-31.32
-33.40
-33.92
-32.68
-29.73
-25.29
-19.74
-13.51
-7.03
-0.67
5.18
10.20
14.16
16.98
18.71
19.52
19.66
19.40
18.91
18.33
17.64
16.75
15.47
13.69
11.45
8.99
6.73
4.95
3.71
2.74
1.49
-0.52
-3.57
-7.58
-12.21
-17.01
-21.55
-25.44
-28.31
-29.83
-29.69
-27.81
-24.35
-19.71
-14.39
-8.81
-3.26
2.08
7.06
11.52
15.24
18.05
19.87
20.80
21.03
20.79
20.22
19.37
18.20
16.69
14.88
12.91
10.95
9.14
7.52
6.03
4.48
2.71
0.59
-1.98
-5.13
-8.89
-13.32
-18.23
-23.20
-27.60
-30.74
-32.11
-31.51
-29.07
-25.16
-20.23
-14.67
-8.80
-2.91
2.68
7.61
11.55
14.31
15.88
16.44
16.29
15.76
15.01
14.08
12.86
11.23
9.16
6.83
4.57
2.66
1.18
-0.03
-1.38
-3.26
-5.96
-9.48
-13.70
-18.39
-23.32
-28.23
-32.76
-36.35
-38.38
-38.35
-36.05
-31.69
-25.79
-19.02
-11.98
-5.11
1.26
6.87
11.44
14.71
16.47
16.74
15.76
13.92
11.66
9.33
7.08
4.95
2.91
0.94
-0.95
-2.73
-4.38
-6.04
-7.95
-10.48
-13.94
-18.49
-23.96
-29.85
-35.39
-39.78
-42.37
-42.82
-41.10
-37.39
-32.03
-25.41
-18.06
-10.58
-3.55
2.57
7.62
11.66
14.84
17.20
18.61
18.87
17.88
15.83
13.15
10.38
7.90
5.90
4.35
3.06
1.83
0.39
-1.51
-4.15
-7.75
-12.36
-17.85
-23.80
-29.60
-34.53
-37.82
-38.82
-37.17
-32.89
-26.42
-18.50
-9.97
-1.55
6.24
13.11
18.89
23.49
26.85
28.96
29.88
29.74
28.65
26.77
24.27
21.35
18.28
15.35
12.75
10.56
8.69
6.94
4.97
2.41
-1.06
-5.61
-11.10
-17.08
-22.77
-27.28
-29.81
-29.85
-27.24
-22.22
-15.26
-6.99
1.92
10.84
19.21
26.55
32.48
36.78
39.41
40.50
40.34
39.35
37.92
36.38
34.90
33.46
31.94
30.13
27.90
25.24
22.27
19.27
16.44
13.83
11.22
8.21
4.40
-0.41
-6.04
-11.97
-17.45
-21.71
-24.13
-24.29
-22.05
-17.54
-11.12
-3.37
5.08
13.61
21.69
28.99
35.24
40.26
43.95
46.26
47.31
47.36
46.71
45.61
44.26
42.71
40.95
39.01
36.89
34.58
32.05
29.23
26.08
22.68
19.19
15.71
12.29
8.81
5.02
0.68
-4.34
-9.99
-16.16
-22.58
-28.94
-34.76
-39.48
-42.45
-43.13
-41.32
-37.13
-31.00
-23.52
-15.29
-6.81
1.54
9.47
16.71
22.97
28.01
31.71
34.04
35.14
35.20
34.44
33.11
31.40
29.51
27.65
26.04
24.79
23.88
23.07
22.01
20.36
17.94
14.75
10.98
6.85
2.58
-1.68
-5.85
-9.92
-13.98
-18.20
-22.78
-27.77
-32.96
-37.85
-41.72
-43.85
-43.77
-41.32
-36.67
-30.22
-22.51
-14.10
-5.60
2.43
9.48
15.25
19.63
22.76
24.90
26.31
27.17
27.60
27.61
27.28
26.72
26.10
25.54
25.07
24.62
24.04
23.17
21.90
20.15
17.92
15.20
12.03
8.50
4.76
1.01
-2.59
-6.03
-9.40
-12.95
-16.88
-21.26
-25.91
-30.33
-33.84
-35.77
-35.66
-33.40
-29.24
-23.75
-17.53
-11.08
-4.68
1.58
7.62
13.21
18.02
21.64
23.79
24.44
23.85
22.46
20.73
18.98
17.36
15.88
14.47
13.09
11.76
10.44
9.06
7.53
5.71
3.52
0.98
-1.86
-4.87
-7.93
-11.00
-14.22
-17.80
-22.03
-27.01
-32.58
-38.20
-43.10
-46.45
-47.67
-46.58
-43.42
-38.75
-33.21
-27.32
-21.45
-15.85
-10.68
-6.16
-2.51
0.09
1.59
2.19
2.27
2.21
2.25
2.40
2.45
2.15
1.35
0.08
-1.49
-3.09
-4.59
-5.90
-7.01
-8.02
-9.07
-10.42
-12.42
-15.35
-19.31
-24.11
-29.21
-33.90
-37.46
-39.30
-39.10
-36.83
-32.69
-27.11
-20.63
-13.84
-7.26
-1.31
3.73
7.71
10.49
12.10
12.66
12.45
11.82
11.14
10.63
10.30
10.07
9.81
9.45
9.03
8.63
8.30
8.01
7.66
7.01
5.75
3.53
0.11
-4.52
-10.09
-15.92
-21.19
-25.10
-27.08
-26.94
-24.80
-21.05
-16.15
-10.57
-4.75
0.87
5.97
10.30
13.75
16.30
18.03
19.03
19.39
19.20
18.57
17.58
16.30
14.81
13.18
11.46
9.71
7.91
5.99
3.84
1.38
-1.44
-4.58
-8.04
-11.79
-15.85
-20.13
-24.35
-28.03
-30.56
-31.40
-30.29
-27.27
-22.65
-16.87
-10.37
-3.50
3.41
10.03
15.96
20.84
24.43
26.71
27.86
28.16
27.89
27.16
25.96
24.18
21.80
18.95
15.94
13.11
10.76
8.98
7.62
6.36
4.77
2.50
-0.72
-4.89
-9.77
-14.87
-19.57
-23.19
-25.08
-24.79
-22.07
-17.01
-10.11
-2.19
5.75
12.81
18.40
22.41
25.01
26.53
27.20
27.16
26.47
25.22
23.60
21.79
19.92
17.97
15.85
13.50
10.99
8.49
6.17
4.11
2.18
0.06
-2.66
-6.31
-11.02
-16.58
-22.46
-27.88
-31.99
-34.10
-33.79
-31.05
-26.22
-19.90
-12.82
-5.70
0.90
6.55
10.99
14.07
15.71
15.96
15.03
13.27
11.14
9.03
7.19
5.57
3.95
2.11
-0.10
-2.62
-5.34
-8.14
-11.02
-14.11
-17.55
-21.44
-25.72
-30.15
-34.32
-37.73
-39.85
-40.22
-38.62
-35.11
-30.05
-24.00
-17.52
-11.09
-5.04
0.36
4.91
8.40
10.64
11.58
11.35
10.27
8.72
7.03
5.37
3.75
2.17
0.63
-0.83
-2.18
-3.51
-5.07
-7.19
-10.17
-14.05
-18.58
-23.13
-26.90
-29.13
-29.31
-27.35
-23.54
-18.45
-12.73
-6.86
-1.13
4.41
9.74
14.74
19.16
22.60
24.73
25.42
24.84
23.37
21.48
19.47
17.46
15.39
13.20
10.93
8.70
6.61
4.64
2.51
-0.18
-3.76
-8.28
-13.42
-18.48
-22.55
-24.73
-24.40
-21.33
-15.86
-8.70
-0.83
6.89
13.87
19.88
24.92
29.07
32.29
34.43
35.35
35.00
33.49
31.10
28.15
24.95
21.77
18.82
16.23
13.98
11.90
9.77
7.29
4.25
0.46
-4.07
-9.21
-14.61
-19.72
-23.83
-26.23
-26.42
-24.24
-19.91
-13.97
-7.08
0.10
7.04
13.34
18.67
22.79
25.52
26.83
26.82
25.72
23.86
21.59
19.20
16.84
14.58
12.41
10.28
8.19
6.10
3.97
1.72
-0.79
-3.70
-7.19
-11.29
-15.89
-20.65
-25.05
-28.44
-30.15
-29.76
-27.16
-22.58
-16.51
-9.48
-2.03
5.39
12.33
18.37
23.13
26.39
28.11
28.52
27.98
26.83
25.38
23.74
21.97
20.13
18.29
16.51
14.84
13.23
11.58
9.76
7.64
5.14
2.24
-1.07
-4.75
-8.80
-13.17
-17.63
-21.80
-25.04
-26.69
-26.25
-23.58
-18.94
-12.90
-6.06
1.02
7.93
14.34
19.93
24.30
27.21
28.60
28.66
27.79
26.44
24.96
23.61
22.45
21.47
20.54
19.49
18.08
16.19
13.82
11.12
8.33
5.60
2.90
0.12
-2.92
-6.39
-10.31
-14.66
-19.31
-24.04
-28.44
-31.94
-33.92
-33.88
-31.67
-27.47
-21.77
-15.18
-8.33
-1.73
4.14
8.91
12.31
14.22
14.74
14.20
13.04
11.79
10.84
10.36
10.26
10.20
9.77
8.66
6.82
4.46
1.97
-0.32
-2.29
-4.09
-6.05
-8.54
-11.73
-15.60
-19.89
-24.17
-27.96
-30.77
-32.16
-31.80
-29.53
-25.41
-19.76
-13.09
-6.04
0.71
6.61
11.28
14.57
16.47
17.12
16.73
15.58
14.00
12.31
10.76
9.43
8.21
6.90
5.31
3.41
1.31
-0.78
-2.72
-4.59
-6.64
-9.26
-12.76
-17.18
-22.20
-27.18
-31.26
-33.61
-33.65
-31.23
-26.68
-20.72
-14.23
-8.02
-2.64
1.72
5.13
7.74
9.63
10.71
10.83
9.87
7.97
5.44
2.78
0.40
-1.48
-2.94
-4.19
-5.51
-7.09
-9.00
-11.25
-13.91
-17.08
-20.84
-25.03
-29.26
-32.89
-35.26
-35.80
-34.30
-30.87
-25.88
-19.84
-13.25
-6.56
-0.13
5.70
10.70
14.67
17.54
19.30
20.02
19.79
18.80
17.30
15.57
13.86
12.32
10.97
9.71
8.37
6.75
4.74
2.19
-1.00
-4.90
-9.46
-14.39
-19.13
-23.00
-25.26
-25.38
-23.25
-19.12
-13.55
-7.26
-0.85
5.24
10.80
15.72
19.95
23.38
26.00
27.81
28.85
29.20
28.87
27.79
25.96
23.49
20.65
17.79
15.21
12.99
11.02
9.03
6.76
4.07
0.92
-2.69
-6.73
-11.14
-15.74
-20.12
-23.68
-25.78
-25.86
-23.65
-19.32
-13.36
-6.54
0.37
6.74
12.23
16.72
20.24
22.79
24.34
24.86
24.37
23.09
21.44
19.78
18.40
17.32
16.34
15.21
13.76
11.98
9.97
7.86
5.66
3.25
0.48
-2.73
-6.36
-10.28
-14.31
-18.19
-21.63
-24.20
-25.44
-24.95
-22.54
-18.30
-12.63
-6.08
0.78
7.46
13.61
18.93
23.16
26.15
27.86
28.46
28.25
27.61
26.84
26.07
25.30
24.36
23.10
21.51
19.64
17.65
15.64
13.54
11.17
8.35
5.02
1.32
-2.54
-6.36
-10.14
-13.98
-17.90
-21.71
-24.94
-27.01
-27.47
-26.20
-23.36
-19.32
-14.42
-8.94
-3.16
2.59
7.86
12.11
14.99
16.28
16.10
14.75
12.68
10.35
8.14
6.32
4.95
3.98
3.21
2.46
1.66
0.77
-0.19
-1.23
-2.52
-4.26
-6.69
-9.90
-13.83
-18.20
-22.55
-26.39
-29.24
-30.75
-30.71
-29.06
-25.85
-21.28
-15.71
-9.67
-3.78
1.30
5.09
7.32
8.06
7.58
6.27
4.52
2.61
0.74
-1.00
-2.60
-4.05
-5.36
-6.54
-7.62
-8.62
-9.62
-10.75
-12.18
-14.08
-16.60
-19.80
-23.61
-27.69
-31.52
-34.39
-35.57
-34.60
-31.41
-26.39
-20.22
-13.63
-7.15
-1.04
4.58
9.58
13.75
16.82
18.62
19.20
18.80
17.77
16.39
14.84
13.23
11.65
10.22
9.05
8.07
7.06
5.67
3.58
0.59
-3.32
-8.05
-13.42
-19.18
-24.86
-29.87
-33.46
-34.94
-33.94
-30.52
-25.15
-18.55
-11.45
-4.41
2.16
8.01
12.96
16.81
19.40
20.71
20.85
20.10
18.81
17.29
15.75
14.28
12.92
11.66
10.46
9.28
8.08
6.78
5.29
3.49
1.22
-1.62
-4.97
-8.52
-11.68
-13.70
-13.91
-11.99
-8.12
-2.94
2.71
8.06
12.63
16.19
18.63
19.88
19.91
18.82
16.90
14.60
12.31
10.30
8.53
6.76
4.74
2.31
-0.41
-3.17
-5.69
-7.81
-9.56
-11.21
-13.17
-15.81
-19.31
-23.54
-27.99
-31.93
-34.55
-35.22
-33.67
-29.97
-24.49
-17.77
-10.35
-2.78
4.47
11.00
16.47
20.69
23.57
25.21
25.82
25.67
25.06
24.17
23.06
21.69
19.97
17.88
15.47
12.84
10.11
7.32
4.48
1.55
-1.56
-4.94
-8.66
-12.75
-17.08
-21.27
-24.68
-26.54
-26.22
-23.47
-18.58
-12.23
-5.25
1.69
8.18
14.07
19.25
23.53
26.68
28.46
28.90
28.20
26.76
24.92
22.91
20.76
18.43
15.92
13.32
10.80
8.51
6.52
4.73
2.87
0.58
-2.47
-6.49
-11.38
-16.75
-21.93
-26.12
-28.62
-28.97
-27.06
-23.12
-17.60
-11.06
-4.16
2.52
8.42
13.08
16.23
17.80
17.93
16.91
15.06
12.71
10.10
7.45
4.94
2.76
1.03
-0.23
-1.13
-1.86
-2.69
-3.91
-5.84
-8.74
-12.69
-17.52
-22.76
-27.60
-31.17
-32.69
-31.76
-28.31
-22.72
-15.63
-7.85
-0.23
6.54
12.03
16.08
18.78
20.34
20.90
20.56
19.42
17.68
15.65
13.61
11.65
9.70
7.58
5.20
2.65
0.12
-2.26
-4.63
-7.28
-10.52
-14.45
-18.91
-23.41
-27.30
-29.86
-30.43
-28.55
-24.09
-17.33
-8.99
-0.12
8.23
15.26
20.52
23.95
25.67
25.95
24.99
23.13
20.72
18.16
15.81
13.89
12.43
11.19
9.78
7.76
4.88
1.18
-3.05
-7.41
-11.55
-15.31
-18.68
-21.63
-23.98
-25.32
-25.21
-23.36
-19.72
-14.55
-8.26
-1.32
5.79
12.60
18.63
23.44
26.74
28.47
28.73
27.82
26.04
23.72
21.09
18.35
15.62
12.98
10.42
8.00
5.71
3.54
1.35
-1.17
-4.38
-8.55
-13.60
-19.07
-24.18
-28.06
-30.02
-29.73
-27.22
-22.77
-16.82
-9.87
-2.41
5.05
12.03
18.14
23.13
26.86
29.36
30.72
31.05
30.46
29.01
26.73
23.71
20.16
16.37
12.79
9.72
7.30
5.43
3.80
2.03
-0.26
-3.39
-7.55
-12.69
-18.47
-24.27
-29.18
-32.31
-33.02
-31.13
-26.90
-20.90
-13.75
-6.10
1.49
8.57
14.75
19.80
23.71
26.59
28.55
29.71
30.08
29.65
28.52
26.76
24.51
21.85
18.89
15.75
12.68
9.98
7.82
6.14
4.51
2.30
-1.08
-5.98
-12.32
-19.65
-27.26
-34.37
-40.25
-44.29
-46.07
-45.44
-42.57
-37.87
-31.90
-25.29
-18.53
-12.03
-6.12
-1.10
2.76
5.24
6.36
6.40
5.91
5.48
5.52
6.05
6.70
7.01
6.70
5.83
4.74
3.80
3.12
2.41
1.09
-1.41
-5.34
-10.49
-16.22
-21.68
-26.00
-28.54
-28.90
-26.98
-22.93
-17.16
-10.23
-2.77
4.58
11.24
16.74
20.78
23.28
24.39
24.44
23.83
22.86
21.68
20.26
18.53
16.48
14.20
11.88
9.71
7.77
5.98
4.19
2.19
-0.24
-3.25
-6.93
-11.25
-15.96
-20.56
-24.39
-26.72
-27.00
-24.94
-20.59
-14.32
-6.73
1.41
9.31
16.20
21.51
24.95
26.55
26.59
25.46
23.49
20.95
18.10
15.20
12.58
10.54
9.18
8.32
7.60
6.59
4.99
2.74
-0.06
-3.27
-6.83
-10.73
-14.91
-19.07
-22.64
-24.90
-25.16
-23.07
-18.75
-12.72
-5.71
1.53
8.39
14.49
19.60
23.63
26.55
28.41
29.31
29.38
28.75
27.52
25.78
23.62
21.19
18.65
16.14
13.77
11.54
9.36
7.08
4.48
1.34
-2.48
-6.99
-12.02
-17.12
-21.70
-25.10
-26.75
-26.29
-23.67
-19.12
-13.17
-6.42
0.42
6.76
12.12
16.21
18.90
20.26
20.51
19.99
19.04
17.93
16.79
15.59
14.23
12.64
10.80
8.80
6.75
4.72
2.71
0.61
-1.73
-4.51
-7.83
-11.68
-15.86
-19.93
-23.22
-25.08
-24.99
-22.84
-18.92
-13.83
-8.25
-2.73
2.43
7.09
11.19
14.63
17.25
18.90
19.50
19.09
17.80
15.84
13.43
10.80
8.14
5.54
3.02
0.50
-2.08
-4.75
-7.50
-10.26
-13.07
-16.03
-19.30
-22.94
-26.75
-30.26
-32.78
-33.65
-32.42
-29.04
-23.86
-17.52
-10.67
-3.87
2.55
8.37
13.44
17.54
20.43
21.93
22.10
21.22
19.72
18.02
16.39
14.89
13.41
11.76
9.83
7.58
5.08
2.43
-0.35
-3.26
-6.34
-9.60
-12.98
-16.25
-19.02
-20.81
-21.16
-19.78
-16.63
-12.01
-6.39
-0.38
5.49
10.76
15.11
18.31
20.18
20.70
19.92
18.12
15.69
13.08
10.67
8.69
7.16
5.94
4.78
3.45
1.79
-0.27
-2.76
-5.62
-8.87
-12.46
-16.25
-19.91
-22.86
-24.40
-23.94
-21.24
-16.51
-10.41
-3.74
2.76
8.63
13.64
17.75
20.89
22.98
23.92
23.70
22.48
20.48
17.98
15.27
12.58
10.05
7.78
5.82
4.12
2.64
1.27
-0.15
-1.80
-3.95
-6.80
-10.40
-14.52
-18.58
-21.78
-23.38
-22.91
-20.33
-16.00
-10.45
-4.23
2.12
8.12
13.23
16.98
19.02
19.35
18.33
16.57
14.60
12.77
11.15
9.61
8.03
6.37
4.71
3.08
1.42
-0.41
-2.56
-5.13
-8.17
-11.67
-15.56
-19.70
-23.81
-27.43
-30.00
-31.06
-30.34
-27.89
-23.95
-18.95
-13.37
-7.69
-2.39
2.09
5.35
7.16
7.40
6.24
4.01
1.19
-1.70
-4.23
-6.15
-7.42
-8.19
-8.73
-9.29
-10.14
-11.45
-13.39
-16.09
-19.55
-23.63
-27.93
-31.91
-34.91
-36.38
-35.94
-33.51
-29.29
-23.70
-17.30
-10.69
-4.42
1.10
5.58
8.84
10.78
11.36
10.66
8.84
6.22
3.16
0.05
-2.83
-5.31
-7.34
-9.01
-10.47
-11.94
-13.67
-15.93
-18.89
-22.58
-26.78
-30.99
-34.49
-36.54
-36.56
-34.29
-29.85
-23.71
-16.52
-9.03
-1.89
4.33
9.21
12.56
14.34
14.74
14.03
12.59
10.75
8.77
6.86
5.11
3.57
2.18
0.84
-0.65
-2.43
-4.65
-7.35
-10.52
-14.01
-17.63
-21.04
-23.81
-25.44
-25.49
-23.69
-20.00
-14.68
-8.21
-1.23
5.66
11.94
17.21
21.24
23.87
25.06
24.90
23.60
21.52
19.07
16.65
14.55
12.88
11.56
10.33
8.92
7.06
4.56
1.37
-2.51
-6.97
-11.78
-16.53
-20.63
-23.35
-24.03
-22.33
-18.32
-12.59
-5.97
0.75
7.02
12.62
17.56
21.80
25.23
27.61
28.66
28.26
26.53
23.83
20.67
17.59
14.96
12.94
11.52
10.48
9.59
8.65
7.51
6.09
4.26
1.90
-1.11
-4.81
-8.95
-12.98
-16.09
-17.44
-16.43
-12.95
-7.38
-0.46
6.99
14.29
21.05
27.00
31.93
35.59
37.74
38.28
37.36
35.35
32.71
29.78
26.76
23.70
20.61
17.55
14.61
11.92
9.56
7.51
5.74
4.08
2.35
0.29
-2.38
-5.82
-10.02
-14.74
-19.44
-23.42
-25.91
-26.31
-24.28
-19.89
-13.52
-5.84
2.45
10.67
18.30
24.92
30.24
34.04
36.21
36.82
36.16
34.69
32.92
31.23
29.82
28.65
27.61
26.48
25.10
23.33
21.11
18.47
15.56
12.66
9.98
7.60
5.27
2.51
-1.23
-6.26
-12.39
-19.04
-25.29
-30.26
-33.28
-33.96
-32.25
-28.31
-22.54
-15.50
-7.84
-0.19
6.97
13.28
18.53
22.59
25.44
27.10
27.75
27.61
26.97
26.03
24.91
23.68
22.37
21.02
19.71
18.46
17.26
16.05
14.72
13.18
11.33
9.07
6.30
2.96
-1.02
-5.63
-10.82
-16.40
-22.04
-27.25
-31.42
-34.05
-34.78
-33.56
-30.61
-26.24
-20.86
-14.82
-8.53
-2.47
2.84
6.94
9.58
10.75
10.77
10.02
8.90
7.62
6.26
4.84
3.40
2.02
0.78
-0.32
-1.33
-2.35
-3.45
-4.62
-5.88
-7.41
-9.46
-12.33
-16.11
-20.56
-25.17
-29.24
-32.15
-33.51
-33.16
-31.09
-27.44
-22.42
-16.42
-9.97
-3.67
1.92
6.39
9.58
11.45
12.15
11.88
10.94
9.66
8.29
6.94
5.60
4.14
2.46
0.59
-1.32
-3.09
-4.59
-5.92
-7.29
-9.02
-11.35
-14.38
-18.08
-22.31
-26.80
-31.17
-34.86
-37.25
-37.74
-35.99
-32.03
-26.30
-19.53
-12.55
-6.10
-0.70
3.39
6.17
7.84
8.67
8.91
8.76
8.24
7.30
5.93
4.17
2.19
0.14
-1.81
-3.57
-5.07
-6.34
-7.52
-8.86
-10.72
-13.43
-17.09
-21.48
-26.06
-30.11
-32.92
-33.93
-32.82
-29.53
-24.30
-17.64
-10.20
-2.68
4.31
10.37
15.26
18.90
21.27
22.48
22.72
22.28
21.43
20.38
19.14
17.63
15.73
13.46
10.95
8.46
6.20
4.25
2.53
0.78
-1.37
-4.21
-7.91
-12.36
-17.12
-21.54
-24.84
-26.37
-25.76
-22.97
-18.26
-12.12
-5.09
2.29
9.52
16.18
21.87
26.25
29.13
30.46
30.43
29.43
27.91
26.29
24.77
23.34
21.81
19.99
17.79
15.31
12.76
10.34
8.12
5.94
3.51
0.50
-3.32
-7.95
-13.23
-18.86
-24.44
-29.49
-33.49
-35.90
-36.31
-34.56
-30.83
-25.61
-19.50
-12.97
-6.34
0.27
6.75
12.87
18.27
22.51
25.28
26.53
26.50
25.62
24.38
23.11
21.99
21.00
19.98
18.76
17.21
15.31
13.13
10.79
8.39
5.93
3.31
0.39
-2.97
-6.85
-11.24
-16.06
-21.08
-25.99
-30.32
-33.53
-35.08
-34.56
-31.78
-26.84
-20.17
-12.39
-4.16
3.89
11.25
17.59
22.71
26.61
29.35
31.07
31.88
31.88
31.13
29.83
28.23
26.66
25.39
24.49
23.80
23.09
22.11
20.70
18.82
16.49
13.75
10.64
7.22
3.58
-0.18
-4.02
-8.02
-12.29
-16.96
-22.00
-27.21
-32.19
-36.40
-39.20
-40.01
-38.38
-34.22
-27.80
-19.78
-10.95
-2.09
6.22
13.58
19.75
24.56
27.92
29.87
30.61
30.45
29.77
28.87
27.94
27.07
26.32
25.68
25.16
24.70
24.19
23.45
22.31
20.63
18.34
15.46
12.12
8.55
4.93
1.36
-2.25
-6.13
-10.59
-15.80
-21.64
-27.70
-33.30
-37.73
-40.36
-40.81
-38.98
-35.03
-29.34
-22.40
-14.79
-7.07
0.23
6.67
11.89
15.63
17.76
18.33
17.60
15.99
14.10
12.43
11.34
10.88
10.81
10.68
10.08
8.79
6.97
4.99
3.29
2.14
1.44
0.72
-0.56
-2.92
-6.52
-11.21
-16.54
-21.93
-26.79
-30.62
-33.03
-33.77
-32.69
-29.79
-25.23
-19.31
-12.53
-5.51
1.03
6.45
10.33
12.53
13.19
12.54
10.87
8.43
5.44
2.23
-0.87
-3.58
-5.82
-7.73
-9.59
-11.63
-13.93
-16.38
-18.85
-21.32
-23.95
-27.03
-30.77
-35.13
-39.77
-44.10
-47.41
-49.05
-48.58
-45.82
-40.83
-33.96
-25.77
-17.00
-8.41
-0.69
5.63
10.25
13.14
14.42
14.35
13.25
11.43
9.21
6.89
4.70
2.79
1.19
-0.17
-1.45
-2.77
-4.25
-5.94
-7.95
-10.43
-13.55
-17.38
-21.72
-26.06
-29.59
-31.49
-31.12
-28.27
-23.17
-16.42
-8.77
-0.96
6.36
12.68
17.66
21.09
22.95
23.37
22.61
21.04
19.04
16.92
14.94
13.24
11.85
10.73
9.70
8.59
7.17
5.27
2.71
-0.60
-4.68
-9.39
-14.42
-19.24
-23.20
-25.62
-25.92
-23.85
-19.51
-13.34
-6.03
1.69
9.18
15.94
21.65
26.10
29.21
30.97
31.49
31.01
29.77
28.02
25.90
23.48
20.81
17.98
15.11
12.32
9.64
7.01
4.26
1.20
-2.39
-6.67
-11.66
-17.20
-22.87
-28.01
-31.78
-33.37
-32.19
-28.14
-21.54
-13.14
-3.86
5.43
14.10
21.77
28.28
33.55
37.48
39.92
40.71
39.85
37.63
34.54
31.11
27.81
24.81
22.05
19.42
16.84
14.29
11.82
9.37
6.74
3.63
-0.26
-5.08
-10.79
-17.12
-23.59
-29.52
-34.13
-36.66
-36.55
-33.66
-28.28
-21.02
-12.67
-3.87
4.90
13.31
21.05
27.75
32.99
36.43
37.95
37.80
36.44
34.49
32.48
30.70
29.23
27.93
26.64
25.22
23.59
21.72
19.55
17.02
14.12
10.87
7.37
3.67
-0.24
-4.50
-9.32
-14.81
-20.81
-26.83
-32.10
-35.78
-37.12
-35.73
-31.64
-25.26
-17.28
-8.53
0.29
8.67
16.31
23.05
28.73
33.14
36.02
37.25
36.96
35.54
33.56
31.52
29.73
28.20
26.76
25.28
23.71
22.06
20.32
18.44
16.26
13.69
10.75
7.53
4.10
0.37
-3.86
-8.83
-14.57
-20.77
-26.82
-31.92
-35.28
-36.34
-34.83
-30.79
-24.63
-16.93
-8.44
0.07
7.97
14.81
20.35
24.45
27.03
28.05
27.54
25.74
23.11
20.20
17.52
15.34
13.67
12.21
10.61
8.62
6.20
3.49
0.73
-1.86
-4.13
-6.08
-7.85
-9.71
-12.01
-15.12
-19.25
-24.36
-30.03
-35.57
-40.13
-42.91
-43.30
-40.96
-35.97
-28.75
-20.06
-10.87
-2.10
5.52
11.57
15.89
18.55
19.69
19.59
18.63
17.27
15.94
14.92
14.21
13.61
12.80
11.59
9.96
8.07
6.12
4.32
2.71
1.19
-0.51
-2.74
-5.88
-10.13
-15.45
-21.43
-27.38
-32.48
-35.97
-37.26
-36.10
-32.55
-26.95
-19.87
-12.02
-4.11
3.25
9.64
14.79
18.64
21.18
22.49
22.67
21.86
20.28
18.21
15.97
13.83
11.94
10.28
8.64
6.75
4.38
1.52
-1.62
-4.76
-7.70
-10.41
-13.13
-16.18
-19.81
-24.04
-28.66
-33.19
-37.02
-39.44
-39.85
-37.89
-33.60
-27.40
-20.02
-12.20
-4.57
2.51
8.77
14.01
18.05
20.75
22.18
22.56
22.21
21.41
20.24
18.65
16.57
14.03
11.22
8.38
5.73
3.38
1.35
-0.44
-2.14
-3.98
-6.26
-9.30
-13.32
-18.34
-24.10
-30.03
-35.42
-39.42
-41.28
-40.49
-36.97
-31.02
-23.31
-14.69
-5.95
2.27
9.59
15.78
20.69
24.22
26.30
27.00
26.53
25.29
23.70
22.15
20.80
19.63
18.41
16.92
15.04
12.82
10.39
7.86
5.31
2.72
0.12
-2.52
-5.27
-8.30
-11.87
-16.21
-21.31
-26.84
-32.11
-36.21
-38.35
-37.97
-34.97
-29.64
-22.52
-14.31
-5.66
2.79
10.60
17.43
23.09
27.44
30.39
31.93
32.17
31.36
29.89
28.13
26.37
24.74
23.26
21.88
20.54
19.19
17.80
16.28
14.53
12.47
10.04
7.26
4.16
0.73
-3.10
-7.38
-12.13
-17.25
-22.46
-27.34
-31.35
-33.89
-34.43
-32.58
-28.32
-21.97
-14.19
-5.81
2.38
9.79
16.08
21.14
24.96
27.51
28.82
28.89
27.94
26.35
24.55
22.96
21.70
20.62
19.34
17.52
15.00
11.95
8.73
5.70
3.00
0.50
-2.15
-5.32
-9.24
-13.89
-19.05
-24.38
-29.47
-33.92
-37.30
-39.19
-39.23
-37.21
-33.17
-27.46
-20.62
-13.31
-6.12
0.48
6.20
10.82
14.17
16.08
16.52
15.64
13.82
11.65
9.69
8.30
7.52
7.08
6.58
5.75
4.50
2.98
1.37
-0.24
-1.97
-4.11
-7.02
-10.87
-15.63
-21.02
-26.50
-31.43
-35.17
-37.21
-37.19
-35.02
-30.91
-25.27
-18.69
-11.73
-4.87
1.57
7.35
12.29
16.22
19.01
20.63
21.17
20.87
20.00
18.74
17.24
15.51
13.57
11.47
9.34
7.30
5.48
3.88
2.41
0.90
-0.87
-3.13
-6.03
-9.66
-13.97
-18.78
-23.77
-28.40
-32.06
-34.09
-34.03
-31.66
-27.20
-21.16
-14.24
-7.11
-0.25
6.02
11.51
16.06
19.50
21.66
22.55
22.34
21.36
20.01
18.59
17.29
16.09
14.89
13.49
11.80
9.78
7.55
5.26
3.07
1.05
-0.95
-3.26
-6.29
-10.28
-15.26
-20.86
-26.49
-31.46
-35.12
-37.00
-36.83
-34.57
-30.40
-24.67
-17.90
-10.67
-3.46
3.30
9.33
14.43
18.43
21.23
22.80
23.31
23.05
22.36
21.56
20.78
20.04
19.28
18.38
17.31
16.07
14.66
13.03
11.11
8.86
6.26
3.33
0.10
-3.46
-7.38
-11.72
-16.44
-21.37
-26.21
-30.49
-33.69
-35.30
-34.97
-32.58
-28.33
-22.62
-15.91
-8.67
-1.24
6.05
12.87
18.75
23.27
26.09
27.21
26.92
25.77
24.34
23.06
22.17
21.67
21.45
21.34
21.15
20.69
19.74
18.21
16.08
13.46
10.51
7.36
4.01
0.39
-3.62
-8.11
-13.06
-18.43
-24.09
-29.82
-35.19
-39.55
-42.09
-42.14
-39.36
-33.95
-26.59
-18.22
-9.72
-1.82
5.04
10.58
14.68
17.31
18.57
18.69
17.99
16.78
15.31
13.72
12.08
10.34
8.40
6.17
3.69
1.07
-1.46
-3.67
-5.51
-7.11
-8.79
-10.92
-13.76
-17.40
-21.78
-26.75
-32.07
-37.44
-42.36
-46.14
-48.00
-47.32
-43.81
-37.69
-29.59
-20.41
-11.04
-2.18
5.68
12.22
17.25
20.71
22.64
23.26
22.96
22.20
21.36
20.63
20.05
19.48
18.82
17.99
17.02
15.93
14.72
13.31
11.58
9.41
6.74
3.52
-0.29
-4.74
-9.79
-15.28
-20.85
-25.89
-29.63
-31.37
-30.59
-27.19
-21.43
-13.97
-5.58
2.98
11.12
18.48
24.81
29.95
33.75
36.08
36.93
36.53
35.30
33.77
32.36
31.22
30.24
29.10
27.57
25.54
23.16
20.65
18.31
16.24
14.35
12.30
9.59
5.73
0.41
-6.33
-14.05
-21.96
-29.10
-34.59
-37.71
-38.10
-35.74
-30.93
-24.31
-16.63
-8.59
-0.73
6.64
13.36
19.31
24.28
28.05
30.50
31.69
31.76
30.95
29.51
27.66
25.63
23.70
22.04
20.69
19.45
18.02
16.14
13.69
10.72
7.29
3.49
-0.63
-4.99
-9.46
-13.90
-18.23
-22.46
-26.53
-30.21
-32.99
-34.26
-33.50
-30.45
-25.30
-18.53
-10.70
-2.40
5.89
13.74
20.70
26.36
30.44
32.81
33.56
32.97
31.42
29.34
27.15
25.12
23.36
21.85
20.46
19.06
17.59
15.96
14.08
11.83
9.15
6.07
2.76
-0.60
-3.90
-7.23
-10.88
-15.14
-20.18
-25.87
-31.77
-37.21
-41.46
-43.83
-43.79
-41.09
-35.80
-28.36
-19.51
-10.08
-0.89
7.47
14.64
20.47
24.93
28.05
29.92
30.70
30.65
30.03
29.06
27.86
26.48
24.94
23.30
21.65
20.03
18.42
16.72
14.78
12.51
9.89
6.97
3.84
0.56
-2.91
-6.62
-10.70
-15.26
-20.33
-25.80
-31.31
-36.32
-40.17
-42.21
-42.06
-39.67
-35.35
-29.65
-23.14
-16.32
-9.56
-3.13
2.66
7.52
11.16
13.43
14.36
14.16
13.10
11.45
9.43
7.25
5.09
3.16
1.59
0.36
-0.67
-1.73
-3.00
-4.52
-6.34
-8.45
-10.91
-13.81
-17.18
-20.91
-24.80
-28.60
-32.04
-34.90
-36.90
-37.70
-36.98
-34.50
-30.29
-24.61
-17.91
-10.66
-3.28
3.87
10.40
15.94
20.13
22.72
23.66
23.18
21.70
19.74
17.79
16.19
15.07
14.34
13.75
13.01
11.91
10.41
8.60
6.63
4.55
2.31
-0.29
-3.42
-7.17
-11.50
-16.21
-21.03
-25.59
-29.40
-31.95
-32.65
-31.10
-27.23
-21.34
-14.10
-6.30
1.33
8.31
14.38
19.42
23.32
26.02
27.44
27.63
26.84
25.44
23.91
22.62
21.75
21.17
20.59
19.60
17.90
15.43
12.34
8.98
5.62
2.39
-0.78
-4.11
-7.82
-12.06
-16.73
-21.55
-26.04
-29.61
-31.69
-31.81
-29.79
-25.74
-20.07
-13.36
-6.24
0.73
7.14
12.68
17.17
20.44
22.47
23.35
23.35
22.82
22.06
21.30
20.50
19.54
18.22
16.46
14.32
12.00
9.69
7.52
5.52
3.58
1.49
-0.99
-4.10
-8.02
-12.72
-17.92
-23.01
-27.25
-29.95
-30.64
-29.15
-25.66
-20.51
-14.17
-7.14
0.05
6.89
12.88
17.65
20.98
22.84
23.35
22.79
21.55
20.11
18.87
18.05
17.59
17.21
16.54
15.28
13.35
10.87
8.11
5.33
2.72
0.29
-2.06
-4.57
-7.53
-11.18
-15.63
-20.73
-26.08
-31.05
-34.91
-36.99
-36.85
-34.34
-29.65
-23.27
-15.87
-8.15
-0.73
5.97
11.70
16.37
19.94
22.39
23.73
24.05
23.58
22.63
21.54
20.50
19.52
18.51
17.34
15.95
14.37
12.71
11.02
9.32
7.53
5.58
3.37
0.81
-2.22
-5.84
-10.12
-14.96
-20.12
-25.15
-29.45
-32.41
-33.51
-32.45
-29.19
-24.01
-17.45
-10.15
-2.77
4.14
10.15
14.98
18.46
20.52
21.28
20.98
20.00
18.70
17.38
16.12
14.85
13.43
11.79
9.95
8.03
6.12
4.25
2.28
0.01
-2.75
-6.11
-10.06
-14.50
-19.32
-24.36
-29.38
-33.98
-37.62
-39.64
-39.54
-37.12
-32.60
-26.60
-19.83
-12.95
-6.43
-0.51
4.65
8.91
12.14
14.25
15.30
15.49
15.12
14.50
13.81
13.11
12.33
11.38
10.15
8.65
6.97
5.22
3.54
1.98
0.48
-1.15
-3.14
-5.72
-9.03
-13.07
-17.65
-22.44
-26.89
-30.39
-32.31
-32.21
-29.91
-25.53
-19.48
-12.39
-4.93
2.31
8.88
14.51
19.07
22.49
24.73
25.78
25.71
24.72
23.15
21.41
19.87
18.69
17.83
17.06
16.14
14.92
13.34
11.48
9.42
7.15
4.60
1.62
-1.93
-6.15
-11.02
-16.43
-22.10
-27.62
-32.42
-35.88
-37.41
-36.59
-33.33
-27.92
-21.00
-13.36
-5.76
1.30
7.59
13.10
17.89
21.89
24.98
26.97
27.82
27.64
26.68
25.23
23.57
21.90
20.38
19.08
18.00
16.94
15.69
13.94
11.60
8.71
5.53
2.29
-0.86
-4.01
-7.34
-11.09
-15.41
-20.24
-25.39
-30.43
-34.85
-38.01
-39.37
-38.52
-35.34
-30.02
-22.96
-14.73
-5.98
2.62
10.45
16.98
21.87
25.03
26.61
26.95
26.48
25.64
24.78
24.15
23.83
23.78
23.83
23.76
23.35
22.42
20.85
18.62
15.81
12.57
9.18
5.91
2.99
0.52
-1.62
-3.67
-6.01
-8.96
-12.79
-17.56
-23.12
-29.11
-34.84
-39.52
-42.38
-42.81
-40.63
-36.04
-29.58
-21.97
-13.98
-6.18
1.00
7.34
12.83
17.54
21.51
24.71
26.96
28.11
28.08
26.99
25.21
23.22
21.42
20.03
19.02
18.18
17.24
16.04
14.46
12.52
10.24
7.60
4.61
1.32
-2.16
-5.65
-8.97
-12.12
-15.25
-18.67
-22.65
-27.16
-31.80
-35.82
-38.34
-38.69
-36.59
-32.24
-26.14
-18.93
-11.19
-3.41
4.01
10.65
16.14
20.15
22.52
23.32
22.86
21.58
19.98
18.43
17.16
16.19
15.39
14.57
13.55
12.24
10.67
8.87
6.91
4.82
2.61
0.30
-2.15
-4.80
-7.79
-11.24
-15.14
-19.26
-23.14
-26.13
-27.62
-27.15
-24.56
-19.97
-13.79
-6.57
1.02
8.31
14.70
19.74
23.23
25.20
25.85
25.42
24.26
22.64
20.82
18.99
17.27
15.65
14.08
12.48
10.74
8.86
6.87
4.85
2.90
1.02
-0.89
-3.08
-5.87
-9.58
-14.31
-19.88
-25.81
-31.37
-35.79
-38.40
-38.75
-36.73
-32.53
-26.61
-19.63
-12.30
-5.29
0.91
5.93
9.59
11.85
12.84
12.90
12.44
11.92
11.57
11.38
11.09
10.41
9.17
7.40
5.33
3.24
1.29
-0.42
-1.93
-3.31
-4.71
-6.33
-8.48
-11.42
-15.32
-20.02
-25.06
-29.63
-32.86
-33.95
-32.45
-28.39
-22.22
-14.74
-6.86
0.63
7.16
12.43
16.36
19.00
20.45
20.89
20.58
19.85
19.01
18.25
17.63
16.99
16.08
14.67
12.63
10.05
7.15
4.30
1.79
-0.23
-1.87
-3.42
-5.28
-7.83
-11.32
-15.76
-20.94
-26.44
-31.69
-35.96
-38.50
-38.67
-36.16
-31.06
-23.93
-15.62
-7.08
0.88
7.78
13.38
17.69
20.88
23.15
24.70
25.69
26.22
26.31
25.94
25.11
23.88
22.37
20.73
19.09
17.55
16.15
14.79
13.30
11.45
9.03
5.92
2.13
-2.23
-6.96
-11.89
-16.93
-21.96
-26.91
-31.63
-35.91
-39.42
-41.74
-42.41
-41.00
-37.34
-31.54
-24.11
-15.75
-7.20
0.97
8.39
14.88
20.32
24.60
27.59
29.27
29.70
29.13
27.93
26.52
25.29
24.52
24.22
24.20
24.10
23.53
22.25
20.27
17.76
14.98
12.15
9.35
6.62
3.91
1.17
-1.71
-4.94
-8.79
-13.48
-19.04
-25.21
-31.42
-36.87
-40.73
-42.24
-40.97
-36.93
-30.56
-22.66
-14.23
-6.12
1.12
7.30
12.57
17.10
20.97
24.13
26.44
27.81
28.30
28.06
27.30
26.19
24.82
23.27
21.60
19.88
18.13
16.33
14.42
12.32
9.94
7.27
4.26
0.91
-2.77
-6.78
-11.11
-15.74
-20.66
-25.78
-30.94
-35.84
-40.08
-43.13
-44.55
-43.97
-41.23
-36.45
-30.00
-22.42
-14.30
-6.19
1.51
8.44
14.26
18.61
21.23
22.09
21.51
20.07
18.43
17.10
16.26
15.86
15.65
15.41
14.99
14.32
13.35
12.07
10.45
8.47
6.12
3.46
0.55
-2.49
-5.49
-8.37
-11.22
-14.29
-17.97
-22.52
-27.80
-33.21
-37.75
-40.33
-40.16
-36.94
-30.98
-23.06
-14.16
-5.17
3.23
10.71
17.17
22.52
26.68
29.53
31.07
31.55
31.39
31.09
30.92
30.85
30.59
29.80
28.43
26.67
24.88
23.30
21.85
20.25
18.21
15.58
12.48
9.11
5.57
1.84
-2.19
-6.60
-11.34
-16.29
-21.33
-26.36
-31.26
-35.78
-39.55
-41.98
-42.56
-40.90
-36.91
-30.86
-23.28
-14.90
-6.46
1.45
8.46
14.44
19.35
23.24
26.11
27.98
28.93
29.17
28.94
28.47
27.84
27.07
26.14
25.09
24.05
23.11
22.30
21.49
20.44
18.88
16.69
13.90
10.70
7.41
4.26
1.32
-1.55
-4.58
-8.11
-12.36
-17.37
-23.01
-28.96
-34.70
-39.60
-42.93
-44.02
-42.48
-38.29
-31.93
-24.16
-15.81
-7.58
0.11
7.09
13.30
18.66
23.13
26.64
29.17
30.80
31.63
31.76
31.33
30.46
29.25
27.83
26.33
24.86
23.59
22.59
21.86
21.26
20.48
19.19
17.14
14.31
10.89
7.20
3.56
0.10
-3.17
-6.38
-9.74
-13.44
-17.62
-22.33
-27.47
-32.79
-37.81
-41.98
-44.70
-45.47
-43.98
-40.16
-34.28
-26.87
-18.69
-10.58
-3.24
2.92
7.79
11.46
14.11
15.89
16.89
17.25
17.13
16.79
16.47
16.27
16.11
15.82
15.20
14.16
12.76
11.14
9.51
7.98
6.54
5.03
3.21
0.83
-2.28
-6.11
-10.57
-15.52
-20.85
-26.41
-31.92
-36.87
-40.54
-42.29
-41.69
-38.78
-34.01
-28.04
-21.53
-15.02
-8.88
-3.39
1.19
4.66
6.93
8.07
8.29
7.86
7.07
6.15
5.24
4.40
3.58
2.67
1.59
0.34
-0.96
-2.21
-3.41
-4.74
-6.46
-8.85
-12.03
-15.94
-20.43
-25.25
-30.13
-34.71
-38.52
-41.01
-41.70
-40.32
-36.91
-31.78
-25.39
-18.27
-10.88
-3.61
3.24
9.38
14.61
18.70
21.50
22.99
23.34
22.84
21.85
20.65
19.37
17.96
16.34
14.52
12.60
10.69
8.78
6.69
4.12
0.83
-3.27
-8.08
-13.43
-19.15
-25.07
-30.90
-36.13
-40.06
-41.98
-41.37
-38.15
-32.68
-25.59
-17.57
-9.20
-0.99
6.66
13.30
18.57
22.20
24.23
24.91
24.70
24.05
23.27
22.48
21.67
20.74
19.66
18.38
16.88
15.11
13.02
10.59
7.85
4.87
1.69
-1.73
-5.46
-9.64
-14.34
-19.48
-24.72
-29.50
-33.10
-34.85
-34.32
-31.45
-26.56
-20.22
-13.05
-5.64
1.59
8.38
14.50
19.79
24.07
27.22
29.27
30.33
30.65
30.52
30.20
29.84
29.52
29.22
28.88
28.44
27.83
26.96
25.75
24.18
22.23
19.96
17.44
14.71
11.77
8.56
5.03
1.10
-3.28
-8.19
-13.63
-19.50
-25.46
-30.93
-35.09
-37.11
-36.37
-32.67
-26.35
-18.17
-9.06
0.11
8.74
16.52
23.32
29.05
33.63
36.97
39.15
40.38
40.99
41.30
41.50
41.58
41.38
40.75
39.64
38.17
36.55
34.98
33.62
32.48
31.36
29.90
27.67
24.37
19.97
14.76
9.28
4.04
-0.65
-4.87
-8.96
-13.34
-18.27
-23.77
-29.49
-34.92
-39.39
-42.29
-43.10
-41.58
-37.78
-32.06
-24.88
-16.78
-8.24
0.26
8.19
15.04
20.36
23.92
25.84
26.47
26.29
25.71
25.02
24.34
23.66
22.95
22.12
21.09
19.76
18.08
16.06
13.77
11.28
8.62
5.79
2.82
-0.27
-3.44
-6.69
-10.11
-13.87
-18.12
-22.90
-28.08
-33.32
-38.16
-42.02
-44.31
-44.57
-42.55
-38.26
-32.01
-24.30
-15.72
-6.89
1.61
9.33
15.87
21.06
24.86
27.41
28.92
29.58
29.53
28.90
27.86
26.66
25.58
24.77
24.24
23.81
23.28
22.47
21.27
19.68
17.63
15.06
11.90
8.16
3.98
-0.45
-4.85
-9.00
-12.79
-16.27
-19.72
-23.49
-27.90
-32.94
-38.19
-42.84
-45.96
-46.82
-45.13
-41.04
-35.05
-27.74
-19.65
-11.26
-3.08
4.32
10.44
14.92
17.73
19.16
19.71
19.93
20.18
20.59
21.06
21.38
21.41
21.11
20.58
19.95
19.29
18.54
17.58
16.26
14.51
12.38
9.90
7.20
4.36
1.45
-1.49
-4.42
-7.37
-10.42
-13.67
-17.24
-21.21
-25.61
-30.36
-35.19
-39.63
-43.05
-44.79
-44.37
-41.63
-36.81
-30.40
-22.97
-14.98
-6.83
1.11
8.40
14.57
19.22
22.20
23.63
23.88
23.45
22.79
22.29
22.21
22.63
23.46
24.46
25.25
25.54
25.16
24.16
22.68
20.88
18.86
16.63
14.18
11.52
8.72
5.87
3.00
0.06
-3.04
-6.43
-10.19
-14.36
-18.92
-23.77
-28.71
-33.47
-37.68
-40.88
-42.60
-42.44
-40.15
-35.79
-29.72
-22.54
-14.97
-7.56
-0.70
5.44
10.75
15.14
18.43
20.44
21.17
20.75
19.54
17.95
16.39
15.11
14.24
13.76
13.52
13.33
12.90
12.04
10.59
8.51
5.89
2.85
-0.43
-3.78
-7.04
-10.14
-13.11
-16.11
-19.38
-23.15
-27.48
-32.24
-37.06
-41.48
-44.95
-46.89
-46.80
-44.36
-39.53
-32.67
-24.55
-16.13
-8.30
-1.64
3.69
7.85
11.10
13.66
15.59
16.84
17.36
17.18
16.52
15.66
14.92
14.51
14.44
14.55
14.56
14.22
13.38
12.02
10.22
8.06
5.58
2.73
-0.58
-4.38
-8.66
-13.33
-18.33
-23.58
-28.97
-34.24
-38.94
-42.42
-44.04
-43.27
-40.00
-34.54
-27.50
-19.68
-11.84
-4.54
1.82
7.07
11.18
14.28
16.56
18.23
19.41
20.17
20.53
20.50
20.19
19.67
18.94
18.00
16.77
15.25
13.53
11.77
10.06
8.40
6.64
4.57
2.09
-0.76
-3.84
-7.04
-10.41
-14.19
-18.64
-23.90
-29.76
-35.61
-40.60
-43.85
-44.73
-43.09
-39.16
-33.44
-26.48
-18.68
-10.42
-2.06
5.97
13.16
19.10
23.62
26.80
28.98
30.52
31.67
32.46
32.79
32.51
31.64
30.33
28.87
27.49
26.27
25.09
23.69
21.79
19.27
16.16
12.63
8.86
4.96
0.92
-3.40
-8.11
-13.33
-19.06
-25.22
-31.54
-37.46
-42.24
-45.00
-45.05
-42.17
-36.65
-29.29
-21.02
-12.73
-5.00
1.84
7.66
12.35
15.79
17.91
18.78
18.64
17.88
16.92
16.11
15.63
15.42
15.19
14.62
13.44
11.67
9.50
7.31
5.36
3.69
2.08
0.12
-2.59
-6.33
-11.09
-16.66
-22.65
-28.46
-33.46
-36.93
-38.25
-36.99
-33.08
-26.87
-19.03
-10.42
-1.94
5.71
12.10
17.13
20.95
23.76
25.69
26.73
26.85
26.04
24.52
22.58
20.53
18.51
16.48
14.30
11.89
9.28
6.66
4.20
1.98
-0.13
-2.36
-4.96
-8.17
-12.07
-16.62
-21.68
-26.99
-32.18
-36.78
-40.29
-42.15
-41.91
-39.29
-34.26
-27.21
-18.82
-9.93
-1.26
6.72
13.87
20.19
25.69
30.29
33.83
36.17
37.34
37.53
37.06
36.26
35.40
34.61
33.94
33.32
32.56
31.48
29.86
27.56
24.59
21.08
17.24
13.27
9.31
5.40
1.47
-2.66
-7.19
-12.29
-17.97
-23.93
-29.54
-34.00
-36.47
-36.40
-33.67
-28.57
-21.73
-13.82
-5.52
2.68
10.33
17.09
22.65
26.76
29.33
30.44
30.28
29.22
27.67
25.99
24.50
23.34
22.51
21.88
21.26
20.43
19.25
17.64
15.60
13.11
10.19
6.89
3.25
-0.62
-4.61
-8.66
-12.82
-17.28
-22.26
-27.83
-33.72
-39.28
-43.58
-45.72
-45.11
-41.68
-35.87
-28.42
-20.16
-11.77
-3.81
3.32
9.33
14.01
17.35
19.45
20.56
20.93
20.80
20.35
19.74
19.04
18.25
17.33
16.19
14.81
13.29
11.84
10.59
9.62
8.78
7.83
6.50
4.57
1.91
-1.53
-5.71
-10.55
-15.76
-20.94
-25.57
-29.04
-30.86
-30.68
-28.38
-24.14
-18.38
-11.67
-4.55
2.53
9.36
15.80
21.66
26.69
30.61
33.19
34.45
34.52
33.69
32.26
30.55
28.87
27.59
26.98
27.14
27.91
28.86
29.43
29.14
27.60
24.64
20.32
14.93
8.95
3.00
-2.41
-7.05
-11.11
-15.11
-19.64
-25.09
-31.46
-38.35
-44.97
-50.37
-53.63
-54.10
-51.48
-45.93
-38.11
-28.89
-19.26
-10.06
-1.95
4.64
9.59
13.04
15.35
17.10
18.85
20.92
23.31
25.69
27.60
28.71
28.81
27.95
26.33
24.29
22.14
20.22
18.70
17.55
16.53
15.29
13.57
11.30
8.51
5.24
1.49
-2.82
-7.79
-13.30
-19.04
-24.51
-29.16
-32.54
-34.33
-34.37
-32.70
-29.50
-25.03
-19.61
-13.58
-7.19
-0.68
5.72
11.74
17.07
21.42
24.59
26.43
26.95
26.31
24.86
23.00
21.22
19.84
19.02
18.65
18.49
18.20
17.51
16.14
13.91
10.79
6.94
2.76
-1.26
-4.71
-7.49
-9.83
-12.23
-15.16
-18.93
-23.65
-29.19
-35.22
-41.23
-46.50
-50.15
-51.37
-49.65
-45.05
-38.20
-30.13
-21.90
-14.43
-8.23
-3.43
0.07
2.53
4.23
5.41
6.21
6.73
7.03
7.17
7.21
7.09
6.70
5.89
4.60
2.91
1.03
-0.81
-2.48
-4.03
-5.56
-7.23
-9.12
-11.35
-14.08
-17.47
-21.63
-26.47
-31.61
-36.47
-40.35
-42.70
-43.10
-41.44
-37.84
-32.65
-26.40
-19.64
-12.85
-6.27
-0.01
5.94
11.54
16.58
20.77
23.77
25.42
25.74
24.93
23.41
21.63
19.97
18.70
17.89
17.42
17.09
16.62
15.82
14.53
12.58
9.86
6.31
1.99
-2.93
-8.12
-13.36
-18.47
-23.39
-28.01
-32.10
-35.25
-37.00
-36.99
-35.09
-31.42
-26.30
-20.09
-13.17
-5.93
1.22
7.83
13.55
18.11
21.39
23.43
24.34
24.35
23.75
22.84
21.91
21.15
20.55
19.98
19.18
17.99
16.25
13.99
11.35
8.50
5.61
2.78
0.01
-2.85
-5.97
-9.55
-13.71
-18.44
-23.58
-28.79
-33.50
-37.01
-38.54
-37.53
-33.81
-27.72
-20.01
-11.66
-3.53
3.82
10.06
15.13
19.02
21.79
23.54
24.45
24.79
24.81
24.68
24.40
23.94
23.18
22.05
20.57
18.81
16.86
14.84
12.81
10.80
8.72
6.46
3.87
0.88
-2.48
-6.14
-10.01
-14.11
-18.50
-23.22
-28.07
-32.55
-35.88
-37.29
-36.20
-32.50
-26.57
-19.16
-11.11
-3.18
4.16
10.67
16.30
21.06
24.92
27.82
29.73
30.66
30.75
30.26
29.47
28.58
27.69
26.72
25.57
24.15
22.45
20.52
18.43
16.18
13.71
10.94
7.80
4.34
0.68
-3.04
-6.73
-10.44
-14.34
-18.59
-23.21
-27.91
-32.07
-34.90
-35.70
-34.10
-30.21
-24.46
-17.52
-10.01
-2.40
4.95
11.76
17.74
22.59
26.07
28.08
28.72
28.30
27.25
26.05
25.10
24.57
24.43
24.48
24.44
24.04
23.08
21.49
19.28
16.58
13.59
10.51
7.52
4.63
1.72
-1.45
-5.11
-9.35
-14.06
-18.91
-23.41
-26.96
-29.05
-29.26
-27.36
-23.40
-17.68
-10.71
-3.09
4.53
11.60
17.65
22.34
25.44
26.85
26.68
25.24
23.09
20.87
19.11
18.08
17.65
17.35
16.61
15.00
12.39
9.02
5.32
1.66
-1.78
-5.08
-8.46
-12.11
-16.08
-20.35
-24.79
-29.33
-33.86
-38.14
-41.69
-43.85
-43.94
-41.50
-36.52
-29.44
-21.08
-12.42
-4.36
2.44
7.63
11.13
13.10
13.81
13.57
12.62
11.18
9.37
7.36
5.24
3.12
1.05
-0.98
-2.94
-4.81
-6.59
-8.36
-10.32
-12.77
-16.04
-20.33
-25.59
-31.51
-37.51
-42.85
-46.72
-48.42
-47.49
-43.89
-38.04
-30.80
-23.12
-15.89
-9.68
-4.71
-0.92
1.81
3.56
4.34
4.14
3.04
1.25
-0.90
-3.04
-4.86
-6.18
-7.01
-7.44
-7.61
-7.71
-7.84
-8.15
-8.83
-10.13
-12.31
-15.48
-19.39
-23.50
-26.98
-28.99
-28.89
-26.45
-21.86
-15.64
-8.49
-1.08
6.00
12.31
17.55
21.58
24.35
25.93
26.50
26.27
25.45
24.16
22.49
20.49
18.22
15.80
13.39
11.10
8.93
6.77
4.39
1.53
-2.01
-6.30
-11.23
-16.45
-21.37
-25.26
-27.36
-27.16
-24.50
-19.68
-13.28
-6.01
1.51
8.87
15.82
22.19
27.81
32.43
35.82
37.85
38.54
38.07
36.79
35.03
33.09
31.10
29.06
26.91
24.62
22.21
19.75
17.29
14.76
11.99
8.71
4.66
-0.27
-6.02
-12.27
-18.51
-24.03
-28.08
-30.01
-29.42
-26.30
-20.97
-14.09
-6.37
1.52
9.12
16.11
22.34
27.69
32.04
35.30
37.39
38.33
38.23
37.31
35.89
34.28
32.76
31.45
30.37
29.37
28.27
26.85
24.95
22.46
19.38
15.81
11.95
8.07
4.42
1.07
-2.06
-5.20
-8.63
-12.59
-17.20
-22.45
-28.14
-33.84
-38.87
-42.37
-43.50
-41.70
-36.97
-29.83
-21.27
-12.32
-3.83
3.76
10.36
16.07
21.03
25.23
28.60
31.09
32.70
33.59
34.00
34.14
34.10
33.88
33.39
32.61
31.57
30.40
29.23
28.16
27.17
26.10
24.77
22.91
20.34
16.98
12.95
8.53
4.12
0.06
-3.46
-6.53
-9.44
