1629018985.00
64.000000
-0.00
-0.00
-0.00
-0.00
-0.00
-0.00
-0.00
-0.00
-0.00
-0.00
0.00
0.01
0.01
-0.00
-0.03
-0.05
-0.05
0.00
0.13
0.36
0.66
1.01
1.37
1.72
2.06
2.40
2.79
3.24
3.80
4.42
5.06
5.66
6.20
6.68
7.15
7.68
8.31
9.14
10.09
11.04
11.88
12.56
13.14
13.76
14.65
15.96
17.91
20.32
22.90
25.38
27.58
29.57
31.68
34.32
37.81
42.54
48.15
54.10
59.83
64.97
69.58
74.14
79.34
85.71
93.76
103.00
112.62
121.73
129.77
136.75
143.31
150.75
157.77
166.64
177.94
191.79
206.98
220.59
228.29
225.40
208.53
176.79
132.57
79.73
22.64
-35.46
-93.01
-149.76
-205.86
-261.04
-314.47
-364.69
-410.74
-451.88
-487.51
-516.73
-538.20
-550.20
-551.03
-539.60
-515.69
-480.42
-435.85
-384.54
-329.13
-271.93
-214.78
-159.05
-105.83
-55.93
-10.21
30.64
66.09
95.87
120.00
138.73
152.56
162.07
167.96
170.89
171.44
170.11
167.19
162.82
157.02
149.82
141.40
132.10
122.45
112.92
103.87
95.44
87.49
79.77
72.02
63.90
55.07
45.24
34.57
24.00
15.37
10.93
12.48
20.46
33.61
49.34
64.70
77.33
85.99
90.50
91.21
88.51
82.69
74.15
63.70
52.62
42.36
34.05
28.09
24.09
21.22
18.55
15.56
12.36
9.46
7.49
6.81
7.28
8.32
9.13
9.06
7.87
5.78
3.27
0.83
-1.12
-2.35
-2.81
-2.60
-1.98
-1.33
-1.08
-1.48
-2.57
-4.07
-5.56
-6.67
-7.31
-7.66
-7.99
-8.51
-9.16
-9.69
-9.81
-9.37
-8.45
-7.37
-6.49
-6.14
-6.55
-7.72
-9.41
-11.07
-11.88
-10.93
-7.60
-1.86
5.54
13.17
19.43
23.06
23.62
21.48
17.61
13.12
8.88
5.36
2.72
0.96
0.02
-0.13
0.40
1.45
2.82
4.31
5.78
7.15
8.37
9.41
10.27
10.94
11.43
11.66
11.49
10.73
9.18
6.87
3.83
0.40
-3.02
-6.05
-8.52
-10.43
-11.94
-13.20
-14.29
-15.17
-15.74
-15.95
-15.86
-15.55
-15.10
-14.57
-13.98
-13.39
-12.91
-12.64
-12.62
-12.74
-12.79
-12.54
-11.84
-10.79
-9.68
-8.90
-8.83
-9.68
-11.37
-13.38
-14.85
-14.67
-11.91
-6.18
1.98
11.23
19.74
25.78
28.31
27.27
23.46
18.12
12.45
7.29
3.08
-0.03
-2.06
-3.07
-3.19
-2.63
-1.68
-0.68
0.13
0.74
1.31
2.14
3.50
5.55
8.22
11.32
14.54
17.42
19.67
21.15
21.87
21.94
21.53
20.82
19.98
19.07
17.98
16.52
14.45
11.71
8.48
5.17
2.24
0.00
-1.52
-2.57
-3.51
-4.65
-6.14
-7.96
-9.96
-11.95
-13.80
-15.51
-17.23
-19.16
-21.52
-24.37
-27.60
-30.85
-33.78
-36.14
-37.96
-39.53
-41.34
-43.93
-47.71
-52.80
-58.88
-65.01
-69.72
-71.26
-68.10
-59.43
-45.65
-28.26
-9.54
8.14
22.96
33.95
41.02
44.70
45.73
44.84
42.65
39.71
36.50
33.47
30.96
29.11
27.90
27.24
26.99
27.16
27.75
28.79
30.23
31.93
33.63
35.02
35.79
35.69
34.58
32.48
29.61
26.32
23.04
20.07
17.55
15.38
13.35
11.21
8.79
6.05
3.07
-0.03
-3.11
-6.06
-8.76
-11.15
-13.26
-15.25
-17.37
-19.87
-22.92
-26.52
-30.44
-34.31
-37.79
-40.64
-42.91
-44.90
-47.11
-50.14
-54.45
-60.14
-66.78
-73.20
-77.70
-78.38
-73.76
-63.33
-47.85
-29.21
-9.89
7.76
22.08
32.37
38.75
41.86
42.54
41.58
39.69
37.51
35.52
34.07
33.28
33.04
33.15
33.42
33.72
34.07
34.59
35.39
36.57
38.06
39.65
40.99
41.65
41.34
39.95
37.65
34.81
31.82
28.92
26.15
23.39
20.51
17.50
14.50
11.70
9.24
7.09
5.10
3.05
0.76
-1.83
-4.62
-7.43
-10.03
-12.27
-14.16
-15.88
-17.75
-20.11
-23.12
-26.73
-30.67
-34.57
-38.09
-41.11
-43.71
-46.21
-49.08
-52.80
-57.69
-63.66
-70.03
-75.46
-78.19
-76.49
-69.33
-56.75
-40.02
-21.27
-2.94
12.95
25.18
33.42
38.06
39.84
39.53
37.84
35.34
32.57
29.99
27.96
26.62
25.88
25.48
25.15
24.72
24.21
23.80
23.74
24.13
24.91
25.82
26.55
26.87
26.68
26.08
25.22
24.19
22.94
21.26
18.88
15.68
11.76
7.49
3.33
-0.35
-3.46
-6.17
-8.86
-11.87
-15.39
-19.41
-23.72
-27.95
-31.74
-34.81
-37.13
-38.91
-40.73
-43.30
-47.28
-52.88
-59.63
-66.27
-70.95
-71.75
-67.29
-57.24
-42.50
-24.98
-7.07
9.11
22.12
31.40
37.17
40.04
40.78
40.09
38.64
37.01
35.70
35.01
34.98
35.43
36.02
36.44
36.53
36.35
36.16
36.20
36.68
37.60
38.74
39.69
39.96
39.19
37.23
34.28
30.74
27.06
23.55
20.23
16.92
13.41
9.59
5.59
1.67
-1.89
-4.95
-7.63
-10.19
-12.98
-16.24
-20.02
-24.15
-28.31
-32.14
-35.42
-38.19
-40.77
-43.66
-47.36
-52.24
-58.32
-65.19
-71.90
-77.04
-78.97
-76.24
-68.13
-54.98
-38.29
-20.24
-3.12
11.33
22.26
29.69
34.18
36.49
37.30
37.16
36.52
35.77
35.21
35.00
35.14
35.46
35.76
35.89
35.84
35.75
35.85
36.39
37.42
38.73
39.92
40.51
40.15
38.76
36.53
33.76
30.75
27.66
24.56
21.47
18.42
15.47
12.63
9.82
6.96
3.97
0.87
-2.22
-5.11
-7.68
-9.89
-11.80
-13.57
-15.40
-17.53
-20.12
-23.29
-27.00
-31.03
-35.03
-38.65
-41.66
-44.04
-46.12
-48.48
-51.78
-56.45
-62.34
-68.55
-73.48
-75.23
-72.22
-63.75
-50.37
-33.66
-15.81
1.06
15.36
26.31
33.79
38.18
40.07
40.14
39.05
37.37
35.57
33.98
32.78
32.02
31.67
31.62
31.76
32.02
32.37
32.88
33.59
34.46
35.34
35.98
36.10
35.52
34.22
32.33
30.05
27.56
24.95
22.23
19.33
16.27
13.15
10.18
7.59
5.49
3.85
2.44
0.94
-0.91
-3.22
-5.92
-8.76
-11.47
-13.84
-15.81
-17.47
-19.03
-20.77
-22.90
-25.50
-28.53
-31.75
-34.88
-37.70
-40.15
-42.45
-45.00
-48.30
-52.70
-58.21
-64.27
-69.74
-73.13
-72.90
-67.99
-58.19
-44.26
-27.76
-10.60
5.39
18.90
29.21
36.18
40.07
41.33
40.57
38.44
35.60
32.68
30.16
28.33
27.30
26.99
27.21
27.76
28.46
29.23
30.05
30.93
31.81
32.57
32.98
32.86
32.10
30.75
28.98
27.03
25.05
23.12
21.16
19.08
16.78
14.24
11.57
8.98
6.67
4.74
3.09
1.49
-0.33
-2.52
-5.03
-7.63
-10.03
-12.06
-13.74
-15.30
-17.06
-19.26
-21.94
-24.98
-28.10
-31.03
-33.60
-35.79
-37.79
-39.97
-42.73
-46.40
-51.06
-56.39
-61.63
-65.59
-66.91
-64.37
-57.33
-45.98
-31.42
-15.34
0.41
14.32
25.44
33.45
38.43
40.68
40.60
38.69
35.57
31.93
28.44
25.56
23.54
22.37
21.94
22.12
22.79
23.86
25.21
26.69
28.14
29.37
30.17
30.38
29.82
28.45
26.35
23.71
20.83
17.99
15.39
13.05
10.85
8.55
5.93
2.88
-0.50
-3.91
-6.98
-9.41
-11.17
-12.47
-13.82
-15.71
-18.47
-22.09
-26.27
-30.52
-34.35
-37.51
-40.00
-42.13
-44.35
-47.20
-51.09
-56.14
-61.98
-67.68
-71.76
-72.55
-68.71
-59.64
-45.90
-29.06
-11.33
5.10
18.59
28.39
34.55
37.70
38.63
38.13
36.76
35.00
33.21
31.66
30.52
29.84
29.53
29.44
29.42
29.40
29.48
29.76
30.36
31.26
32.32
33.25
33.77
33.60
32.58
30.73
28.16
25.16
22.04
19.08
16.41
14.03
11.75
9.35
6.65
3.60
0.29
-3.05
-6.17
-8.88
-11.12
-13.00
-14.73
-16.63
-18.93
-21.73
-24.93
-28.26
-31.40
-34.13
-36.42
-38.48
-40.69
-43.56
-47.55
-52.79
-58.95
-65.05
-69.58
-70.87
-67.53
-59.04
-45.98
-29.94
-12.99
2.81
16.02
25.98
32.72
36.67
38.41
38.49
37.42
35.68
33.72
31.93
30.54
29.67
29.27
29.27
29.58
30.12
30.86
31.73
32.67
33.54
34.22
34.56
34.46
33.86
32.75
31.18
29.22
26.96
24.48
21.83
19.08
16.32
13.64
11.09
8.65
6.21
3.62
0.84
-2.07
-4.91
-7.47
-9.65
-11.51
-13.30
-15.36
-17.90
-20.99
-24.44
-27.95
-31.17
-33.89
-36.12
-38.07
-40.11
-42.70
-46.21
-50.87
-56.52
-62.56
-67.86
-70.89
-70.17
-64.67
-54.30
-40.03
-23.61
-7.10
7.69
19.65
28.37
34.01
37.01
37.90
37.24
35.61
33.64
31.91
30.77
30.27
30.22
30.26
30.13
29.78
29.40
29.29
29.67
30.56
31.75
32.87
33.58
33.65
33.02
31.75
29.95
27.74
25.24
22.55
19.84
17.28
15.00
13.03
11.30
9.67
7.97
6.08
3.92
1.49
-1.12
-3.79
-6.34
-8.62
-10.53
-12.14
-13.65
-15.33
-17.43
-20.08
-23.17
-26.47
-29.67
-32.58
-35.13
-37.50
-40.02
-43.09
-47.03
-51.89
-57.23
-62.10
-65.11
-64.79
-60.05
-50.63
-37.25
-21.51
-5.39
9.25
21.11
29.62
34.89
37.36
37.62
36.27
33.86
30.96
28.15
25.94
24.62
24.22
24.49
25.07
25.67
26.17
26.66
27.31
28.19
29.18
30.00
30.26
29.64
28.07
25.69
22.84
19.91
17.12
14.50
11.89
9.03
5.81
2.36
-1.05
-4.09
-6.65
-8.89
-11.20
-13.99
-17.44
-21.42
-25.52
-29.28
-32.39
-34.81
-36.79
-38.71
-41.06
-44.29
-48.73
-54.43
-60.92
-67.09
-71.28
-71.69
-67.07
-57.17
-43.00
-26.51
-9.95
4.73
16.40
24.73
30.02
32.82
33.76
33.45
32.44
31.25
30.29
29.73
29.51
29.42
29.24
28.86
28.39
27.99
27.86
28.06
28.50
28.98
29.24
29.09
28.38
27.07
25.15
22.63
19.61
16.20
12.62
9.05
5.68
2.62
-0.17
-2.78
-5.44
-8.38
-11.79
-15.71
-20.04
-24.53
-28.88
-32.84
-36.31
-39.36
-42.27
-45.43
-49.31
-54.25
-60.25
-66.77
-72.61
-76.14
-75.74
-70.39
-60.10
-45.97
-29.80
-13.62
0.95
12.94
22.05
28.44
32.57
34.96
36.18
36.74
37.10
37.58
38.35
39.39
40.57
41.65
42.40
42.64
42.31
41.49
40.37
39.22
38.22
37.46
36.86
36.20
35.20
33.59
31.19
27.98
24.15
20.00
15.86
11.96
8.32
4.80
1.17
-2.75
-6.98
-11.39
-15.72
-19.73
-23.27
-26.34
-29.11
-31.88
-35.04
-39.00
-44.06
-50.22
-56.96
-63.12
-67.06
-67.10
-62.10
-51.96
-37.83
-21.70
-5.84
7.91
18.58
26.03
30.63
32.96
33.51
32.70
30.97
28.81
26.72
25.09
24.04
23.50
23.22
22.96
22.61
22.26
22.11
22.37
23.14
24.26
25.36
25.93
25.56
24.07
21.67
18.74
15.73
12.87
10.11
7.15
3.68
-0.45
-5.10
-9.90
-14.43
-18.40
-21.72
-24.55
-27.21
-30.11
-33.68
-38.27
-44.00
-50.48
-56.71
-61.15
-62.04
-58.07
-48.89
-35.37
-19.44
-3.39
10.75
21.80
29.45
34.09
36.34
36.81
36.00
34.35
32.36
30.54
29.28
28.75
28.80
29.09
29.30
29.27
29.10
29.05
29.39
30.24
31.47
32.70
33.46
33.30
32.02
29.73
26.75
23.52
20.38
17.49
14.77
12.04
9.10
5.89
2.52
-0.80
-3.81
-6.38
-8.53
-10.44
-12.40
-14.71
-17.61
-21.15
-25.19
-29.37
-33.28
-36.58
-39.23
-41.47
-43.90
-47.20
-51.86
-57.95
-64.82
-71.17
-75.24
-75.27
-70.06
-59.42
-44.30
-26.62
-8.69
7.38
20.24
29.41
35.12
37.99
38.70
37.89
36.14
34.04
32.21
31.10
30.91
31.46
32.40
33.32
34.01
34.45
34.77
35.13
35.59
36.10
36.54
36.71
36.42
35.50
33.90
31.70
29.16
26.60
24.30
22.36
20.67
18.94
16.92
14.47
11.70
8.84
6.18
3.90
2.05
0.54
-0.86
-2.37
-4.17
-6.34
-8.80
-11.39
-13.87
-16.13
-18.19
-20.27
-22.66
-25.57
-29.00
-32.66
-36.17
-39.23
-41.76
-43.98
-46.32
-49.28
-53.23
-58.32
-64.29
-70.37
-75.26
-77.30
-74.92
-67.17
-54.19
-37.33
-18.84
-1.14
13.83
25.06
32.49
36.65
38.32
38.17
36.78
34.69
32.43
30.48
29.15
28.48
28.28
28.27
28.27
28.27
28.44
28.95
29.92
31.28
32.83
34.22
35.10
35.19
34.36
32.67
30.35
27.69
24.93
22.22
19.60
17.03
14.52
12.11
9.83
7.73
5.75
3.80
1.80
-0.37
-2.71
-5.15
-7.53
-9.70
-11.56
-13.20
-14.84
-16.77
-19.20
-22.14
-25.36
-28.56
-31.50
-34.09
-36.49
-38.94
-41.75
-45.23
-49.58
-54.75
-60.26
-65.11
-67.80
-66.80
-61.05
-50.46
-36.00
-19.46
-2.91
11.93
23.94
32.69
38.23
40.93
41.24
39.73
36.98
33.61
30.16
27.04
24.54
22.79
21.88
21.80
22.42
23.55
24.96
26.42
27.79
28.99
29.93
30.50
30.55
29.91
28.52
26.45
23.89
21.12
18.41
15.89
13.56
11.34
9.05
6.54
3.71
0.56
-2.80
-6.14
-9.22
-11.84
-13.99
-15.82
-17.66
-19.87
-22.69
-26.10
-29.88
-33.63
-37.00
-39.82
-42.13
-44.20
-46.44
-49.32
-53.27
-58.47
-64.74
-71.30
-76.81
-79.55
-77.93
-71.00
-58.85
-42.67
-24.42
-6.32
9.75
22.58
31.75
37.48
40.40
41.26
40.78
39.58
38.11
36.63
35.29
34.14
33.14
32.30
31.63
31.19
31.10
31.46
32.37
33.78
35.51
37.22
38.52
38.99
38.40
36.76
34.28
31.32
28.23
25.20
22.30
19.46
16.65
13.89
11.29
8.91
6.73
4.63
2.43
-0.01
-2.68
-5.47
-8.18
-10.63
-12.74
-14.54
-16.24
-18.18
-20.70
-24.00
-27.99
-32.33
-36.46
-39.87
-42.34
-44.05
-45.62
-47.85
-51.49
-56.88
-63.77
-71.11
-77.20
-80.05
-77.91
-69.94
-56.48
-39.09
-20.07
-1.81
13.90
26.06
34.50
39.61
42.03
42.43
41.51
39.86
37.98
36.25
34.86
33.84
33.16
32.72
32.45
32.30
32.31
32.55
33.16
34.17
35.49
36.81
37.73
37.89
37.08
35.33
32.82
29.81
26.52
23.14
19.87
16.85
14.21
11.93
9.87
7.78
5.41
2.57
-0.74
-4.32
-7.87
-11.09
-13.77
-15.92
-17.76
-19.68
-21.99
-24.85
-28.17
-31.68
-35.08
-38.21
-41.08
-43.90
-46.98
-50.70
-55.30
-60.77
-66.62
-71.86
-75.01
-74.54
-69.34
-59.11
-44.59
-27.35
-9.38
7.45
21.72
32.68
40.15
44.42
46.03
45.59
43.72
40.98
37.90
34.94
32.45
30.67
29.64
29.31
29.51
30.12
31.03
32.13
33.29
34.34
35.06
35.30
34.99
34.17
32.94
31.38
29.52
27.39
25.02
22.36
19.43
16.28
13.01
9.80
6.84
4.26
2.02
-0.04
-2.17
-4.53
-7.11
-9.77
-12.33
-14.71
-16.96
-19.27
-21.85
-24.77
-27.94
-31.15
-34.14
-36.74
-38.97
-41.09
-43.54
-46.79
-51.20
-56.79
-63.19
-69.47
-74.33
-76.23
-73.84
-66.41
-54.11
-38.09
-20.26
-2.75
12.64
24.80
33.43
38.82
41.55
42.20
41.33
39.41
36.95
34.41
32.12
30.25
28.82
27.74
26.96
26.56
26.70
27.53
29.10
31.21
33.46
35.29
36.17
35.82
34.23
31.71
28.75
25.78
23.01
20.41
17.77
14.85
11.59
8.02
4.33
0.70
-2.68
-5.69
-8.31
-10.64
-12.86
-15.20
-17.82
-20.71
-23.67
-26.45
-28.87
-30.97
-33.05
-35.57
-38.96
-43.46
-48.93
-54.73
-59.78
-62.66
-61.98
-56.77
-46.86
-33.06
-17.01
-0.72
13.95
25.79
34.29
39.59
42.15
42.46
41.03
38.25
34.60
30.64
26.98
24.12
22.30
21.49
21.38
21.63
22.00
22.41
22.93
23.64
24.52
25.34
25.75
25.36
23.91
21.33
17.81
13.71
9.50
5.60
2.26
-0.54
-3.08
-5.78
-9.06
-13.08
-17.75
-22.71
-27.45
-31.56
-34.85
-37.42
-39.64
-42.05
-45.24
-49.64
-55.39
-62.12
-68.85
-74.12
-76.22
-73.71
-65.88
-53.12
-36.84
-19.11
-2.13
12.41
23.59
31.30
35.95
38.19
38.72
38.14
36.98
35.72
34.74
34.20
34.07
34.12
34.10
33.90
33.62
33.53
33.89
34.80
36.11
37.44
38.32
38.38
37.42
35.52
32.91
29.90
26.77
23.68
20.67
17.61
14.35
10.76
6.86
2.82
-1.12
-4.73
-7.92
-10.83
-13.75
-16.99
-20.72
-24.89
-29.25
-33.47
-37.31
-40.70
-43.82
-47.01
-50.75
-55.49
-61.44
-68.31
-75.19
-80.54
-82.57
-79.79
-71.61
-58.63
-42.57
-25.71
-10.13
2.75
12.45
19.19
23.54
26.16
27.60
28.36
28.92
29.75
31.17
33.28
35.92
38.74
41.39
43.67
45.53
47.10
48.51
49.87
51.14
52.20
52.82
52.75
51.81
49.93
47.28
44.16
40.94
37.89
35.09
32.44
29.71
26.73
23.47
20.05
16.70
13.57
10.72
8.07
5.44
2.72
-0.13
-3.05
-5.89
-8.56
-11.08
-13.57
-16.26
-19.35
-22.89
-26.72
-30.51
-33.92
-36.73
-39.03
-41.17
-43.67
-47.07
-51.77
-57.81
-64.80
-71.74
-77.12
-79.22
-76.49
-68.21
-54.77
-37.74
-19.45
-2.28
11.99
22.55
29.51
33.56
35.53
36.11
35.74
34.77
33.49
32.22
31.22
30.63
30.41
30.43
30.52
30.65
30.89
31.40
32.28
33.48
34.73
35.65
35.87
35.20
33.73
31.74
29.58
27.49
25.51
23.53
21.35
18.90
16.25
13.62
11.25
9.26
7.64
6.20
4.69
2.93
0.83
-1.55
-4.04
-6.44
-8.64
-10.60
-12.46
-14.41
-16.65
-19.27
-22.16
-25.11
-27.86
-30.24
-32.31
-34.34
-36.72
-39.88
-44.09
-49.32
-55.10
-60.43
-63.90
-64.01
-59.61
-50.38
-37.07
-21.35
-5.38
8.87
20.12
27.98
32.80
35.24
35.94
35.30
33.59
31.04
28.05
25.10
22.66
21.03
20.29
20.28
20.79
21.64
22.72
24.03
25.50
26.99
28.25
28.95
28.81
27.69
25.68
23.03
20.09
17.17
14.42
11.82
9.18
6.32
3.20
-0.10
-3.36
-6.34
-8.89
-11.07
-13.09
-15.28
-17.92
-21.09
-24.67
-28.32
-31.62
-34.29
-36.28
-37.82
-39.41
-41.67
-45.21
-50.34
-56.83
-63.76
-69.54
-72.24
-70.14
-62.40
-49.43
-32.85
-15.02
1.71
15.59
25.86
32.56
36.29
37.78
37.68
36.54
34.80
32.91
31.26
30.14
29.61
29.54
29.64
29.63
29.37
28.94
28.58
28.58
29.11
30.12
31.32
32.30
32.65
32.07
30.53
28.19
25.39
22.47
19.71
17.22
14.93
12.69
10.33
7.77
4.98
2.07
-0.86
-3.67
-6.23
-8.47
-10.36
-12.01
-13.62
-15.46
-17.75
-20.61
-23.96
-27.55
-31.08
-34.26
-36.97
-39.26
-41.39
-43.78
-46.92
-51.20
-56.75
-63.17
-69.40
-73.84
-74.68
-70.44
-60.60
-45.83
-27.92
-9.31
7.63
21.20
30.67
36.23
38.61
38.77
37.55
35.66
33.66
31.99
30.95
30.64
30.88
31.28
31.39
30.93
29.98
28.91
28.25
28.38
29.35
30.81
32.18
32.89
32.63
31.42
29.50
27.19
24.73
22.18
19.57
16.89
14.22
11.68
9.40
7.40
5.60
3.84
1.92
-0.31
-2.86
-5.61
-8.32
-10.73
-12.69
-14.25
-15.71
-17.47
-19.87
-22.99
-26.59
-30.25
-33.54
-36.23
-38.38
-40.27
-42.31
-44.97
-48.64
-53.56
-59.61
-66.15
-71.86
-74.96
-73.69
-66.90
-54.62
-38.18
-19.85
-2.13
12.92
24.24
31.71
35.93
37.73
37.82
36.75
34.86
32.55
30.23
28.32
27.11
26.61
26.64
26.87
27.07
27.16
27.26
27.56
28.20
29.19
30.33
31.31
31.77
31.42
30.15
28.03
25.31
22.34
19.42
16.73
14.30
12.04
9.82
7.51
5.03
2.31
-0.68
-3.85
-6.99
-9.84
-12.16
-13.94
-15.48
-17.25
-19.73
-23.12
-27.23
-31.53
-35.44
-38.60
-41.01
-43.00
-45.13
-47.95
-51.94
-57.34
-64.05
-71.38
-78.02
-82.07
-81.61
-75.28
-62.98
-46.00
-26.74
-7.88
8.38
20.91
29.60
35.07
38.11
39.41
39.43
38.51
37.01
35.33
33.86
32.81
32.23
32.01
31.98
32.06
32.30
32.83
33.76
35.12
36.72
38.24
39.30
39.59
38.96
37.51
35.42
33.00
30.46
27.91
25.36
22.74
19.96
17.03
13.99
10.97
8.05
5.26
2.53
-0.19
-2.96
-5.69
-8.25
-10.51
-12.48
-14.38
-16.52
-19.22
-22.62
-26.59
-30.84
-34.96
-38.65
-41.78
-44.46
-47.00
-49.89
-53.64
-58.69
-65.11
-72.33
-79.02
-83.28
-83.10
-77.07
-64.94
-47.83
-27.92
-7.85
10.07
24.35
34.46
40.68
43.72
44.43
43.59
41.85
39.76
37.74
36.09
34.96
34.35
34.15
34.20
34.39
34.73
35.30
36.23
37.55
39.13
40.69
41.81
42.13
41.46
39.87
37.60
35.03
32.46
30.01
27.64
25.18
22.49
19.57
16.53
13.57
10.84
8.36
6.02
3.63
1.07
-1.69
-4.56
-7.39
-10.05
-12.47
-14.73
-16.98
-19.45
-22.32
-25.70
-29.50
-33.45
-37.22
-40.47
-43.07
-45.22
-47.39
-50.23
-54.32
-59.85
-66.40
-72.82
-77.45
-78.48
-74.43
-64.71
-49.85
-31.45
-11.81
6.70
22.19
33.61
40.79
44.24
44.81
43.37
40.68
37.35
33.88
30.69
28.13
26.39
25.49
25.31
25.65
26.34
27.30
28.54
30.05
31.78
33.52
34.92
35.61
35.31
33.92
31.58
28.55
25.16
21.65
18.14
14.61
10.99
7.25
3.46
-0.23
-3.65
-6.77
-9.66
-12.56
-15.74
-19.35
-23.38
-27.63
-31.76
-35.51
-38.79
-41.69
-44.54
-47.79
-51.90
-57.13
-63.32
-69.69
-74.88
-77.11
-74.72
-66.78
-53.50
-36.28
-17.38
0.80
16.32
28.17
36.24
41.06
43.37
43.82
42.95
41.15
38.89
36.63
34.82
33.70
33.25
33.21
33.27
33.21
33.06
33.02
33.40
34.35
35.76
37.27
38.36
38.55
37.56
35.39
32.29
28.65
24.89
21.34
18.15
15.28
12.53
9.64
6.42
2.86
-0.92
-4.65
-8.08
-11.12
-13.89
-16.66
-19.71
-23.18
-27.00
-30.91
-34.62
-37.93
-40.82
-43.51
-46.34
-49.77
-54.22
-59.91
-66.65
-73.63
-79.42
-82.19
-80.23
-72.56
-59.33
-41.91
-22.52
-3.57
12.94
25.86
34.91
40.46
43.18
43.81
43.04
41.49
39.68
38.03
36.76
35.94
35.46
35.17
34.98
34.93
35.15
35.76
36.79
38.11
39.45
40.50
40.99
40.72
39.64
37.83
35.47
32.83
30.13
27.53
25.00
22.43
19.66
16.63
13.39
10.07
6.81
3.65
0.57
-2.48
-5.44
-8.19
-10.64
-12.81
-14.94
-17.34
-20.35
-24.04
-28.23
-32.52
-36.44
-39.69
-42.23
-44.29
-46.28
-48.73
-52.16
-56.95
-63.16
-70.23
-76.94
-81.43
-81.75
-76.40
-65.05
-48.70
-29.49
-9.97
7.57
21.69
31.91
38.46
41.95
43.05
42.41
40.65
38.38
36.16
34.38
33.20
32.56
32.25
32.06
31.89
31.75
31.80
32.24
33.17
34.55
36.13
37.51
38.29
38.18
37.11
35.20
32.70
29.89
26.96
24.05
21.22
18.50
15.90
13.43
11.00
8.50
5.81
2.92
-0.12
-3.12
-5.87
-8.20
-10.08
-11.65
-13.18
-15.01
-17.40
-20.41
-23.89
-27.50
-30.86
-33.68
-35.89
-37.69
-39.52
-41.90
-45.32
-50.00
-55.71
-61.61
-66.29
-68.07
-65.43
-57.59
-44.84
-28.59
-10.92
5.96
20.33
31.21
38.41
42.25
43.33
42.30
39.76
36.31
32.51
28.88
25.85
23.72
22.59
22.35
22.74
23.48
24.33
25.21
26.15
27.24
28.47
29.67
30.50
30.58
29.63
27.57
24.62
21.14
17.58
14.29
11.44
8.92
6.51
3.93
1.03
-2.17
-5.48
-8.63
-11.40
-13.74
-15.77
-17.73
-19.93
-22.58
-25.72
-29.20
-32.73
-36.01
-38.85
-41.29
-43.55
-46.07
-49.32
-53.71
-59.31
-65.70
-71.78
-75.91
-76.28
-71.50
-61.13
-45.97
-27.90
-9.29
7.63
21.37
31.32
37.63
40.89
41.80
41.05
39.28
37.08
34.99
33.39
32.44
32.07
32.01
31.98
31.81
31.49
31.19
31.11
31.41
32.08
32.92
33.63
33.92
33.57
32.55
30.97
29.02
26.85
24.51
21.95
19.11
16.04
12.88
9.86
7.15
4.73
2.43
0.00
-2.68
-5.54
-8.27
-10.58
-12.36
-13.84
-15.46
-17.71
-20.82
-24.69
-28.86
-32.83
-36.19
-38.81
-40.87
-42.78
-45.03
-48.15
-52.52
-58.29
-65.07
-71.76
-76.66
-77.81
-73.61
-63.52
-48.29
-29.87
-10.80
6.58
20.67
30.85
37.31
40.68
41.72
41.10
39.39
37.11
34.77
32.81
31.47
30.75
30.46
30.31
30.09
29.78
29.54
29.62
30.22
31.30
32.62
33.78
34.36
34.07
32.84
30.83
28.35
25.75
23.31
21.10
19.00
16.78
14.28
11.50
8.64
5.97
3.67
1.71
-0.14
-2.12
-4.35
-6.72
-8.94
-10.78
-12.25
-13.61
-15.28
-17.63
-20.80
-24.63
-28.70
-32.56
-35.87
-38.51
-40.64
-42.65
-45.05
-48.38
-53.01
-58.95
-65.62
-71.81
-75.78
-75.77
-70.51
-59.75
-44.46
-26.63
-8.67
7.27
19.81
28.49
33.61
35.87
36.03
34.77
32.60
29.98
27.26
24.78
22.78
21.37
20.60
20.42
20.78
21.55
22.61
23.85
25.15
26.39
27.42
28.04
28.06
27.37
25.95
23.98
21.70
19.37
17.10
14.82
12.34
9.47
6.15
2.55
-1.01
-4.23
-7.01
-9.51
-12.09
-15.11
-18.73
-22.81
-26.96
-30.78
-34.04
-36.80
-39.37
-42.22
-45.87
-50.70
-56.84
-63.89
-70.86
-76.12
-77.84
-74.54
-65.69
-51.98
-35.22
-17.73
-1.66
11.50
21.13
27.33
30.60
31.60
30.94
29.23
27.06
24.96
23.38
22.53
22.45
22.95
23.76
24.64
25.53
26.51
27.81
29.68
32.24
35.36
38.71
41.80
44.11
45.26
45.08
43.64
41.28
38.42
35.40
32.38
29.29
25.92
22.08
17.80
13.27
8.85
4.87
1.47
-1.48
-4.31
-7.41
-11.10
-15.44
-20.26
-25.14
-29.65
-33.48
-36.59
-39.30
-42.16
-45.84
-50.88
-57.43
-65.00
-72.38
-77.82
-79.39
-75.62
-66.05
-51.48
-33.80
-15.45
1.35
15.14
25.39
32.30
36.45
38.45
38.83
38.03
36.54
34.86
33.47
32.66
32.48
32.76
33.23
33.72
34.17
34.68
35.39
36.38
37.55
38.69
39.49
39.66
39.07
37.70
35.65
33.13
30.31
27.41
24.59
21.96
19.53
17.18
14.72
11.95
8.75
5.18
1.45
-2.15
-5.34
-8.05
-10.38
-12.65
-15.22
-18.38
-22.20
-26.46
-30.79
-34.79
-38.25
-41.20
-43.96
-47.05
-51.03
-56.34
-63.01
-70.51
-77.58
-82.41
-83.08
-78.17
-67.35
-51.64
-33.13
-14.36
2.44
15.90
25.59
31.87
35.42
36.95
37.10
36.38
35.26
34.20
33.54
33.46
33.95
34.78
35.66
36.34
36.72
36.87
37.00
37.33
37.95
38.78
39.53
39.89
39.59
38.54
36.75
34.35
31.51
28.41
25.24
22.20
19.44
16.96
14.65
12.31
9.76
6.92
3.88
0.82
-2.04
-4.60
-6.87
-8.98
-11.13
-13.54
-16.37
-19.70
-23.44
-27.38
-31.18
-34.54
-37.32
-39.71
-42.16
-45.28
-49.66
-55.57
-62.75
-70.21
-76.40
-79.39
-77.53
-69.94
-56.95
-40.05
-21.51
-3.71
11.52
23.24
31.37
36.37
38.89
39.51
38.70
36.91
34.68
32.59
31.16
30.67
31.05
31.99
33.07
33.96
34.52
34.81
35.00
35.28
35.70
36.21
36.61
36.69
36.22
35.06
33.17
30.63
27.67
24.57
21.61
18.94
16.52
14.19
11.68
8.77
5.42
1.79
-1.80
-4.99
-7.61
-9.77
-11.81
-14.18
-17.22
-20.97
-25.19
-29.44
-33.28
-36.42
-38.88
-40.98
-43.27
-46.43
-51.02
-57.24
-64.74
-72.48
-78.83
-81.90
-80.07
-72.50
-59.50
-42.48
-23.65
-5.41
10.27
22.25
30.33
35.04
37.28
37.94
37.72
37.04
36.13
35.20
34.40
33.86
33.64
33.69
33.92
34.27
34.70
35.28
36.04
36.97
37.93
38.68
38.97
38.60
37.52
35.82
33.70
31.38
29.03
26.70
24.39
22.01
19.51
16.88
14.15
11.40
8.72
6.14
3.67
1.28
-1.04
-3.29
-5.48
-7.61
-9.77
-12.06
-14.64
-17.61
-20.97
-24.61
-28.30
-31.80
-34.92
-37.62
-40.04
-42.47
-45.34
-49.10
-54.01
-60.00
-66.42
-72.02
-75.13
-74.12
-67.92
-56.50
-40.97
-23.33
-5.88
9.47
21.57
30.14
35.55
38.42
39.34
38.81
37.28
35.24
33.18
31.55
30.56
30.16
30.10
30.07
29.94
29.78
29.86
30.43
31.57
33.08
34.52
35.42
35.47
34.60
32.97
30.88
28.62
26.33
24.03
21.69
19.25
16.71
14.14
11.64
9.32
7.20
5.26
3.38
1.40
-0.78
-3.21
-5.77
-8.27
-10.51
-12.36
-13.89
-15.33
-17.04
-19.36
-22.45
-26.19
-30.21
-34.02
-37.22
-39.67
-41.57
-43.46
-46.00
-49.76
-54.93
-61.13
-67.33
-71.95
-73.26
-69.82
-61.07
-47.54
-30.83
-13.15
3.31
16.94
27.00
33.47
36.85
37.83
37.11
35.34
33.12
30.94
29.15
27.92
27.23
26.95
26.90
26.93
26.95
27.00
27.17
27.57
28.30
29.28
30.27
30.91
30.87
29.98
28.33
26.21
23.95
21.81
19.84
17.95
15.97
13.80
11.44
8.99
6.55
4.21
1.96
-0.24
-2.46
-4.70
-6.87
-8.86
-10.55
-11.94
-13.22
-14.67
-16.56
-19.05
-22.06
-25.34
-28.51
-31.29
-33.60
-35.56
-37.51
-39.86
-43.01
-47.20
-52.30
-57.63
-62.00
-63.83
-61.66
-54.68
-43.12
-28.25
-12.05
3.43
16.57
26.50
33.07
36.59
37.59
36.66
34.36
31.29
27.97
24.83
22.13
19.99
18.42
17.41
16.97
17.10
17.80
18.95
20.36
21.78
22.97
23.69
23.82
23.28
22.06
20.21
17.84
15.13
12.24
9.26
6.17
2.93
-0.48
-3.92
-7.19
-10.08
-12.58
-14.89
-17.36
-20.21
-23.45
-26.85
-30.06
-32.91
-35.43
-37.90
-40.72
-44.27
-48.73
-54.04
-59.72
-64.83
-67.99
-67.76
-63.03
-53.49
-39.89
-23.89
-7.58
7.12
18.96
27.50
32.94
35.81
36.71
36.09
34.39
32.06
29.62
27.63
26.43
26.11
26.39
26.86
27.12
27.06
26.84
26.72
26.92
27.41
27.93
28.14
27.74
26.68
25.07
23.20
21.29
19.48
17.76
15.97
13.93
11.50
8.59
5.27
1.70
-1.88
-5.16
-7.93
-10.12
-11.88
-13.59
-15.70
-18.58
-22.29
-26.59
-30.98
-34.96
-38.22
-40.76
-42.97
-45.42
-48.76
-53.44
-59.43
-66.01
-71.78
-74.89
-73.61
-66.94
-55.08
-39.43
-22.14
-5.46
8.90
20.01
27.67
32.20
34.13
34.15
33.01
31.44
30.07
29.23
28.93
28.95
28.99
28.87
28.60
28.32
28.22
28.45
29.09
30.12
31.44
32.84
34.03
34.70
34.58
33.53
31.58
28.92
25.85
22.71
19.77
17.20
15.01
13.10
11.23
9.17
6.79
4.05
1.02
-2.11
-5.17
-8.01
-10.57
-12.91
-15.20
-17.66
-20.47
-23.69
-27.15
-30.56
-33.64
-36.28
-38.66
-41.17
-44.34
-48.55
-53.94
-60.18
-66.45
-71.46
-73.68
-71.73
-64.79
-53.02
-37.57
-20.38
-3.62
10.93
22.20
29.90
34.39
36.29
36.29
35.00
32.93
30.51
28.13
26.09
24.63
23.87
23.80
24.34
25.33
26.58
27.91
29.22
30.37
31.27
31.78
31.79
31.23
30.09
28.44
26.37
23.98
21.30
18.32
15.04
11.48
7.72
3.92
0.27
-3.08
-6.09
-8.86
-11.64
-14.70
-18.19
-22.08
-26.10
-29.90
-33.21
-36.04
-38.72
-41.81
-45.90
-51.32
-57.94
-64.99
-71.13
-74.63
-73.91
-67.97
-56.83
-41.63
-24.35
-7.21
7.90
19.86
28.35
33.69
36.47
37.38
37.01
35.91
34.59
33.47
32.86
32.84
33.30
33.99
34.61
34.99
35.10
35.09
35.19
35.60
36.37
37.36
38.26
38.73
38.50
37.44
35.57
33.08
30.20
27.18
24.22
21.43
18.83
16.36
13.88
11.27
8.44
5.41
2.30
-0.69
-3.40
-5.79
-7.98
-10.25
-12.92
-16.21
-20.11
-24.39
-28.65
-32.53
-35.81
-38.54
-40.98
-43.59
-46.90
-51.37
-57.30
-64.50
-72.19
-78.86
-82.56
-81.45
-74.42
-61.62
-44.55
-25.64
-7.51
7.76
19.09
26.47
30.56
32.34
32.68
32.26
31.50
30.66
29.91
29.35
28.96
28.68
28.43
28.12
27.76
27.41
27.23
27.35
27.86
28.71
29.71
30.55
30.97
30.83
30.21
29.38
28.71
28.43
28.59
29.00
29.29
29.09
28.20
26.68
24.75
22.73
20.84
19.12
17.39
15.41
12.96
9.99
6.64
3.16
-0.14
-3.06
-5.60
-7.98
-10.53
-13.60
-17.36
-21.71
-26.29
-30.65
-34.42
-37.54
-40.26
-43.16
-46.84
-51.79
-58.09
-65.24
-72.13
-77.11
-78.37
-74.46
-64.84
-50.20
-32.36
-13.79
3.16
16.85
26.69
32.89
36.16
37.29
36.92
35.59
33.78
31.96
30.55
29.83
29.78
30.19
30.75
31.21
31.50
31.73
32.13
32.86
33.95
35.18
36.17
36.52
35.92
34.37
32.13
29.64
27.30
25.33
23.66
22.03
20.13
17.84
15.21
12.50
9.99
7.81
5.96
4.25
2.51
0.63
-1.35
-3.29
-5.07
-6.64
-8.12
-9.72
-11.70
-14.25
-17.37
-20.91
-24.53
-27.87
-30.64
-32.77
-34.51
-36.39
-39.00
-42.86
-48.06
-54.16
-60.05
-64.24
-65.13
-61.51
-53.01
-40.25
-24.75
-8.51
6.50
18.87
27.95
33.80
36.86
37.71
36.83
34.63
31.59
28.28
25.26
22.98
21.61
21.05
21.02
21.30
21.82
22.64
23.83
25.34
26.97
28.39
29.28
29.44
28.82
27.51
25.66
23.44
20.98
18.40
15.81
13.28
10.84
8.52
6.28
4.04
1.71
-0.77
-3.37
-6.01
-8.54
-10.86
-12.94
-14.88
-16.84
-18.96
-21.31
-23.90
-26.65
-29.48
-32.34
-35.15
-37.90
-40.64
-43.53
-46.90
-51.09
-56.31
-62.34
-68.33
-72.79
-73.96
-70.38
-61.45
-47.79
-31.09
-13.62
2.45
15.63
25.31
31.63
35.16
36.57
36.47
35.37
33.77
32.11
30.76
29.91
29.51
29.36
29.24
29.03
28.76
28.62
28.79
29.36
30.27
31.28
32.09
32.45
32.23
31.41
30.11
28.44
26.51
24.38
22.07
19.59
16.97
14.28
11.65
9.25
7.18
5.44
3.88
2.26
0.32
-2.05
-4.78
-7.66
-10.42
-12.90
-15.12
-17.23
-19.50
-22.11
-25.10
-28.31
-31.50
-34.39
-36.84
-38.91
-40.89
-43.20
-46.32
-50.60
-56.11
-62.43
-68.54
-72.96
-73.98
-70.22
-61.16
-47.40
-30.63
-13.11
2.99
16.15
25.73
31.93
35.36
36.70
36.55
35.40
33.70
31.89
30.35
29.29
28.72
28.44
28.22
27.93
27.63
27.52
27.82
28.61
29.76
30.97
31.89
32.23
31.89
30.91
29.48
27.81
26.06
24.30
22.49
20.52
18.29
15.76
13.02
10.30
7.84
5.82
4.23
2.83
1.28
-0.67
-3.10
-5.83
-8.54
-10.91
-12.86
-14.54
-16.25
-18.37
-21.07
-24.35
-27.94
-31.51
-34.69
-37.32
-39.43
-41.31
-43.38
-46.19
-50.19
-55.57
-62.01
-68.52
-73.48
-75.03
-71.64
-62.69
-48.83
-31.84
-14.10
2.15
15.39
25.05
31.32
34.81
36.14
35.88
34.47
32.39
30.12
28.09
26.53
25.50
24.85
24.43
24.13
24.01
24.23
24.95
26.23
27.96
29.87
31.56
32.63
32.78
31.88
30.04
27.51
24.72
22.03
19.68
17.67
15.80
13.75
11.26
8.22
4.75
1.16
-2.19
-5.02
-7.26
-9.10
-10.90
-13.05
-15.78
-19.13
-22.85
-26.62
-30.13
-33.18
-35.85
-38.41
-41.21
-44.69
-49.14
-54.62
-60.69
-66.36
-70.14
-70.44
-66.04
-56.65
-43.10
-27.13
-10.82
3.98
16.15
25.30
31.63
35.53
37.40
37.60
36.50
34.59
32.46
30.64
29.48
29.05
29.19
29.63
30.13
30.57
30.97
31.46
32.13
32.96
33.81
34.44
34.62
34.22
33.27
31.87
30.14
28.15
25.93
23.48
20.83
18.04
15.20
12.37
9.57
6.79
4.02
1.29
-1.35
-3.86
-6.21
-8.43
-10.63
-12.95
-15.57
-18.59
-21.99
-25.63
-29.23
-32.51
-35.26
-37.53
-39.58
-41.90
-45.00
-49.35
-55.08
-61.82
-68.61
-73.89
-75.89
-73.13
-64.94
-51.80
-35.25
-17.46
-0.63
13.58
24.30
31.45
35.49
37.15
37.14
36.07
34.41
32.57
30.86
29.56
28.81
28.63
28.82
29.16
29.44
29.64
29.90
30.42
31.30
32.45
33.58
34.33
34.41
33.69
32.24
30.22
27.88
25.43
23.02
20.70
18.43
16.11
13.62
10.89
7.90
4.71
1.43
-1.78
-4.68
-7.04
-8.72
-9.80
-10.59
-11.56
-13.19
-15.71
-19.03
-22.78
-26.50
-29.83
-32.65
-35.06
-37.40
-40.10
-43.64
-48.41
-54.53
-61.56
-68.41
-73.39
-74.66
-70.81
-61.38
-47.18
-30.06
-12.39
3.68
16.67
26.02
31.95
35.09
36.19
35.89
34.71
33.11
31.49
30.20
29.40
29.09
29.08
29.14
29.12
29.02
28.97
29.17
29.78
30.83
32.18
33.58
34.68
35.12
34.68
33.25
30.96
28.10
25.02
22.03
19.35
17.03
15.01
13.14
11.27
9.21
6.90
4.31
1.57
-1.13
-3.59
-5.73
-7.61
-9.42
-11.43
-13.88
-16.83
-20.18
-23.65
-26.90
-29.67
-31.94
-33.89
-35.92
-38.51
-42.04
-46.64
-51.99
-57.30
-61.32
-62.61
-59.91
-52.63
-41.10
-26.61
-11.09
3.50
15.67
24.76
30.81
34.27
35.68
35.41
33.72
30.92
27.48
24.00
21.07
19.10
18.20
18.28
19.07
20.30
21.73
23.13
24.33
25.18
25.57
25.45
24.81
23.71
22.25
20.51
18.56
16.37
13.86
10.90
7.47
3.69
-0.15
-3.72
-6.78
-9.38
-11.72
-14.12
-16.83
-19.91
-23.25
-26.65
-29.94
-33.02
-35.93
-38.78
-41.76
-45.14
-49.23
-54.21
-59.89
-65.56
-69.95
-71.47
-68.74
-61.06
-48.80
-33.40
-16.93
-1.50
11.34
20.90
27.27
31.04
32.90
33.45
33.12
32.23
31.10
30.02
29.24
28.91
29.04
29.51
30.13
30.74
31.24
31.66
32.08
32.60
33.26
33.96
34.47
34.48
33.81
32.40
30.40
28.06
25.63
23.26
20.96
18.67
16.28
13.72
10.96
8.01
4.97
1.98
-0.80
-3.25
-5.37
-7.31
-9.30
-11.60
-14.36
-17.57
-21.07
-24.63
-28.03
-31.11
-33.81
-36.25
-38.71
-41.65
-45.58
-50.93
-57.71
-65.30
-72.38
-77.11
-77.56
-72.48
-61.70
-46.39
-28.70
-11.14
4.18
16.03
24.15
29.03
31.44
32.16
31.84
30.99
30.01
29.25
28.93
29.08
29.56
30.10
30.51
30.67
30.66
30.66
30.89
31.52
32.52
33.72
34.76
35.30
35.12
34.18
32.60
30.59
28.33
25.93
23.44
20.92
18.47
16.18
14.08
12.11
10.14
8.02
5.66
3.11
0.48
-2.07
-4.41
-6.53
-8.53
-10.65
-13.09
-15.93
-19.09
-22.32
-25.31
-27.88
-30.07
-32.10
-34.36
-37.24
-41.10
-46.01
-51.68
-57.28
-61.48
-62.74
-59.74
-51.89
-39.70
-24.65
-8.81
5.82
17.84
26.68
32.42
35.53
36.50
35.76
33.69
30.76
27.58
24.74
22.72
21.66
21.45
21.78
22.38
23.15
24.16
25.50
27.17
28.96
30.53
31.51
31.66
30.92
29.34
27.10
24.40
21.48
18.60
15.98
13.76
11.87
10.05
7.94
5.23
1.87
-1.83
-5.38
-8.28
-10.34
-11.74
-12.98
-14.64
-17.09
-20.38
-24.22
-28.17
-31.82
-34.98
-37.68
-40.20
-42.95
-46.43
-51.02
-56.74
-63.06
-68.78
-72.22
-71.71
-66.21
-55.71
-41.40
-25.23
-9.38
4.44
15.29
22.96
27.78
30.26
30.96
30.43
29.25
27.97
27.06
26.73
26.93
27.41
27.85
28.08
28.11
28.13
28.39
29.03
30.03
31.22
32.35
33.15
33.46
33.21
32.42
31.21
29.65
27.78
25.60
23.12
20.41
17.62
14.96
12.58
10.51
8.64
6.77
4.70
2.35
-0.23
-2.84
-5.34
-7.62
-9.74
-11.86
-14.21
-16.98
-20.26
-23.98
-27.89
-31.71
-35.13
-38.07
-40.63
-43.17
-46.17
-50.16
-55.47
-62.04
-69.24
-75.76
-79.81
-79.60
-73.92
-62.66
-46.98
-28.95
-11.00
4.84
17.35
26.16
31.60
34.31
34.99
34.33
32.98
31.55
30.56
30.35
30.94
32.06
33.26
34.06
34.21
33.77
33.13
32.80
33.15
34.27
35.87
37.46
38.49
38.61
37.74
36.02
33.70
31.09
28.41
25.77
23.23
20.77
18.35
15.95
13.56
11.17
8.81
6.40
3.91
1.29
-1.45
-4.19
-6.75
-8.99
-10.87
-12.57
-14.35
-16.52
-19.26
-22.52
-26.09
-29.66
-32.98
-35.94
-38.63
-41.28
-44.20
-47.76
-52.33
-58.09
-64.75
-71.31
-76.12
-77.23
-73.11
-63.25
-48.49
-30.85
-12.84
3.32
16.26
25.59
31.67
35.15
36.66
36.68
35.56
33.63
31.33
29.11
27.42
26.55
26.54
27.18
28.13
29.03
29.71
30.22
30.78
31.60
32.71
33.90
34.81
35.05
34.40
32.83
30.52
27.76
24.85
22.03
19.40
16.94
14.49
11.88
8.98
5.81
2.55
-0.57
-3.33
-5.72
-7.92
-10.22
-12.93
-16.21
-20.01
-24.15
-28.27
-32.06
-35.28
-37.91
-40.15
-42.44
-45.35
-49.44
-55.01
-61.90
-69.31
-75.77
-79.45
-78.59
-72.13
-60.12
-43.85
-25.51
-7.53
8.10
20.26
28.75
34.07
36.99
38.26
38.47
38.00
37.15
36.15
35.14
34.21
33.41
32.74
32.26
32.05
32.21
32.87
34.04
35.65
37.45
39.10
40.21
40.50
39.86
38.37
36.22
33.59
30.60
27.35
23.91
20.46
17.19
14.29
11.77
9.47
7.15
4.61
1.81
-1.08
-3.87
-6.46
-8.92
-11.47
-14.31
-17.51
-20.98
-24.54
-28.01
-31.33
-34.49
-37.55
-40.54
-43.51
-46.62
-50.17
-54.58
-60.15
-66.76
-73.65
-79.32
-81.88
-79.65
-71.73
-58.47
-41.39
-22.75
-4.85
10.55
22.54
31.00
36.32
39.08
39.89
39.31
37.89
36.10
34.38
33.01
32.10
31.61
31.42
31.39
31.49
31.73
32.20
32.98
34.09
35.38
36.61
37.48
37.73
37.20
35.90
33.92
31.42
28.57
25.52
22.41
19.38
16.53
13.91
11.47
9.12
6.70
4.12
1.36
-1.51
-4.38
-7.10
-9.55
-11.73
-13.69
-15.63
-17.77
-20.28
-23.19
-26.37
-29.55
-32.45
-34.97
-37.27
-39.73
-42.87
-47.09
-52.51
-58.76
-64.87
-69.41
-70.73
-67.50
-59.13
-46.13
-30.00
-12.83
3.27
16.78
26.96
33.79
37.68
39.17
38.74
36.85
33.92
30.47
26.97
23.91
21.62
20.30
19.94
20.39
21.41
22.71
24.10
25.47
26.75
27.86
28.66
28.92
28.49
27.27
25.29
22.64
19.45
15.84
11.93
7.94
4.08
0.60
-2.39
-4.99
-7.48
-10.20
-13.44
-17.25
-21.45
-25.71
-29.71
-33.23
-36.31
-39.18
-42.23
-45.88
-50.51
-56.23
-62.76
-69.22
-74.16
-75.87
-72.83
-64.35
-50.94
-34.20
-16.42
0.14
13.88
24.09
30.86
34.79
36.54
36.74
35.90
34.48
32.96
31.77
31.19
31.29
31.86
32.59
33.15
33.37
33.31
33.22
33.43
34.13
35.25
36.45
37.21
37.06
35.77
33.43
30.40
27.14
23.97
21.03
18.20
15.29
12.12
8.67
5.10
1.64
-1.52
-4.32
-6.94
-9.67
-12.79
-16.44
-20.52
-24.77
-28.84
-32.47
-35.59
-38.31
-40.92
-43.85
-47.56
-52.48
-58.74
-65.96
-73.06
-78.32
-79.80
-75.98
-66.36
-51.75
-34.03
-15.63
1.22
14.98
25.05
31.60
35.27
36.84
37.04
36.45
35.56
34.79
34.40
34.49
34.97
35.55
35.93
35.94
35.63
35.28
35.25
35.82
37.01
38.56
40.01
40.90
40.89
39.84
37.88
35.26
32.31
29.30
26.36
23.52
20.70
17.87
15.08
12.43
10.01
7.78
5.58
3.20
0.48
-2.56
-5.69
-8.61
-11.11
-13.24
-15.28
-17.62
-20.59
-24.25
-28.39
-32.61
-36.51
-39.87
-42.75
-45.44
-48.37
-52.00
-56.71
-62.67
-69.71
-77.05
-83.32
-86.69
-85.38
-78.30
-65.55
-48.50
-29.46
-10.99
4.87
16.94
25.05
29.67
31.57
31.55
30.28
28.34
26.26
24.49
23.37
23.05
23.49
24.47
25.74
27.14
28.64
30.39
32.58
35.33
38.52
41.82
44.77
46.91
47.97
47.93
46.96
45.31
43.22
40.84
38.22
35.34
32.19
28.83
25.38
22.01
18.90
16.17
13.79
11.60
9.38
6.90
4.08
0.99
-2.17
-5.18
-7.89
-10.28
-12.52
-14.85
-17.54
-20.77
-24.54
-28.64
-32.72
-36.40
-39.50
-42.08
-44.54
-47.45
-51.35
-56.51
-62.65
-68.82
-73.52
-74.99
-71.74
-63.05
-49.35
-32.18
-13.80
3.48
17.86
28.43
35.13
38.51
39.35
38.43
36.41
33.83
31.13
28.65
26.66
25.26
24.47
24.24
24.46
25.03
25.93
27.14
28.68
30.48
32.38
34.06
35.08
35.12
33.95
31.67
28.54
24.98
21.41
18.15
15.33
12.91
10.65
8.22
5.38
2.05
-1.56
-5.08
-8.13
-10.52
-12.37
-14.04
-15.97
-18.51
-21.76
-25.59
-29.65
-33.55
-36.97
-39.79
-42.17
-44.59
-47.69
-52.10
-58.08
-65.26
-72.53
-78.18
-80.31
-77.39
-68.78
-55.02
-37.74
-19.22
-1.74
13.01
24.15
31.67
36.09
38.15
38.56
37.92
36.75
35.48
34.37
33.54
32.93
32.43
31.90
31.39
31.01
30.96
31.42
32.45
33.93
35.59
37.01
37.78
37.59
36.38
34.29
31.66
28.82
26.03
23.41
21.01
18.83
16.79
14.72
12.38
9.53
6.06
2.11
-1.95
-5.67
-8.69
-10.96
-12.67
-14.20
-15.96
-18.26
-21.24
-24.82
-28.74
-32.64
-36.20
-39.23
-41.79
-44.22
-47.03
-50.76
-55.74
-61.90
-68.53
-74.28
-77.36
-75.99
-69.05
-56.53
-39.74
-20.91
-2.58
13.17
25.16
33.18
37.67
39.39
39.17
37.69
35.62
33.49
31.76
30.64
30.15
30.11
30.25
30.40
30.46
30.54
30.81
31.43
32.46
33.75
34.99
35.79
35.83
35.01
33.45
31.39
29.05
26.60
24.09
21.54
18.96
16.41
13.90
11.44
8.95
6.35
3.65
0.90
-1.77
-4.22
-6.33
-8.09
-9.56
-10.93
-12.50
-14.53
-17.22
-20.54
-24.26
-28.03
-31.54
-34.62
-37.27
-39.67
-42.11
-44.95
-48.60
-53.34
-59.12
-65.34
-70.70
-73.48
-71.97
-65.15
-53.13
-37.21
-19.54
-2.44
12.25
23.53
31.26
35.87
38.02
38.29
37.15
34.99
32.27
29.49
27.14
25.56
24.79
24.66
24.87
25.16
25.46
25.85
26.47
27.42
28.67
30.00
31.10
31.58
31.13
29.62
27.18
24.21
21.23
18.65
16.59
14.84
12.94
10.48
7.32
3.64
-0.09
-3.42
-6.11
-8.20
-9.99
-11.91
-14.27
-17.17
-20.48
-23.88
-27.04
-29.73
-31.99
-34.05
-36.31
-39.19
-43.04
-48.04
-54.03
-60.38
-65.92
-69.06
-68.21
-62.31
-51.32
-36.36
-19.47
-2.93
11.34
22.28
29.68
33.97
35.86
36.06
35.15
33.62
31.86
30.22
28.94
28.12
27.75
27.65
27.65
27.67
27.73
27.97
28.53
29.47
30.66
31.81
32.61
32.77
32.19
30.89
29.01
26.72
24.18
21.55
18.95
16.47
14.16
11.97
9.80
7.52
5.01
2.24
-0.74
-3.73
-6.53
-8.97
-10.99
-12.73
-14.43
-16.40
-18.87
-21.88
-25.27
-28.80
-32.17
-35.17
-37.79
-40.18
-42.66
-45.67
-49.64
-54.82
-61.11
-67.85
-73.78
-77.22
-76.47
-70.44
-59.05
-43.42
-25.59
-7.92
7.59
19.73
28.17
33.28
35.74
36.22
35.33
33.60
31.56
29.73
28.46
27.88
27.88
28.17
28.49
28.73
28.97
29.40
30.15
31.25
32.53
33.72
34.56
34.81
34.39
33.30
31.64
29.56
27.24
24.84
22.42
19.97
17.43
14.75
11.95
9.15
6.49
4.06
1.80
-0.42
-2.78
-5.34
-7.99
-10.55
-12.81
-14.72
-16.42
-18.20
-20.35
-23.06
-26.32
-29.90
-33.49
-36.76
-39.56
-41.94
-44.25
-47.03
-50.81
-55.93
-62.26
-69.07
-74.97
-78.22
-77.19
-70.82
-59.13
-43.24
-25.17
-7.25
8.47
20.71
29.11
34.03
36.23
36.50
35.54
33.81
31.72
29.62
27.84
26.65
26.12
26.18
26.61
27.15
27.69
28.28
29.07
30.26
31.88
33.72
35.36
36.32
36.24
34.99
32.73
29.83
26.75
23.88
21.43
19.38
17.48
15.39
12.82
9.67
6.12
2.56
-0.63
-3.19
-5.20
-6.95
-8.85
-11.23
-14.20
-17.63
-21.24
-24.71
-27.80
-30.44
-32.72
-34.91
-37.37
-40.53
-44.74
-50.08
-56.20
-62.13
-66.43
-67.43
-63.81
-55.02
-41.68
-25.42
-8.45
7.11
19.76
28.92
34.77
37.91
38.97
38.46
36.71
34.01
30.73
27.33
24.25
21.88
20.41
19.84
20.04
20.84
22.06
23.56
25.19
26.80
28.17
29.03
29.16
28.39
26.67
24.08
20.80
17.09
13.20
9.36
5.75
2.39
-0.80
-4.07
-7.73
-11.98
-16.82
-22.01
-27.17
-31.91
-36.02
-39.51
-42.63
-45.76
-49.33
-53.73
-59.18
-65.52
-72.03
-77.39
-79.88
-77.88
-70.44
-57.74
-41.12
-22.72
-4.78
10.88
23.30
32.23
37.95
40.94
41.74
40.92
39.15
37.17
35.63
34.90
34.96
35.45
35.93
36.11
35.99
35.86
36.07
36.85
38.14
39.59
40.70
41.02
40.31
38.59
36.13
33.33
30.57
28.03
25.65
23.15
20.23
16.68
12.56
8.16
3.87
0.04
-3.21
-6.02
-8.71
-11.69
-15.23
-19.42
-24.09
-28.91
-33.47
-37.46
-40.78
-43.60
-46.38
-49.72
-54.21
-60.21
-67.53
-75.24
-81.69
-84.84
-82.84
-74.77
-60.99
-43.14
-23.62
-4.90
11.15
23.56
32.23
37.60
40.38
41.26
40.93
39.97
38.90
38.09
37.71
37.72
37.94
38.16
38.26
38.30
38.46
38.92
39.80
41.03
42.34
43.40
43.89
43.63
42.57
40.80
38.46
35.71
32.67
29.44
26.13
22.85
19.70
16.74
13.99
11.41
8.95
6.49
3.92
1.16
-1.82
-4.89
-7.88
-10.56
-12.84
-14.85
-16.89
-19.40
-22.67
-26.71
-31.27
-35.88
-40.11
-43.76
-46.90
-49.89
-53.28
-57.56
-63.05
-69.59
-76.42
-82.10
-84.82
-82.87
-75.25
-62.16
-44.96
-25.84
-7.16
9.17
22.06
31.24
37.01
39.98
40.82
40.20
38.77
37.08
35.60
34.54
33.93
33.64
33.50
33.43
33.49
33.82
34.55
35.71
37.24
38.93
40.51
41.66
42.06
41.50
39.92
37.44
34.36
31.03
27.80
24.85
22.24
19.88
17.67
15.51
13.29
10.93
8.35
5.51
2.46
-0.63
-3.53
-6.05
-8.13
-9.91
-11.68
-13.80
-16.50
-19.77
-23.39
-26.96
-30.07
-32.54
-34.45
-36.19
-38.30
-41.31
-45.59
-51.13
-57.49
-63.71
-68.36
-69.85
-66.88
-58.83
-46.12
-30.16
-13.01
3.23
16.92
27.22
34.05
37.82
39.20
38.78
37.06
34.44
31.30
28.07
25.19
23.01
21.77
21.48
22.01
23.13
24.62
26.27
27.95
29.50
30.72
31.42
31.39
30.54
28.92
26.67
24.05
21.31
18.62
16.05
13.49
10.73
7.53
3.77
-0.43
-4.70
-8.55
-11.57
-13.74
-15.39
-17.13
-19.52
-22.80
-26.80
-31.05
-35.03
-38.47
-41.40
-44.13
-47.10
-50.73
-55.36
-61.06
-67.48
-73.67
-78.08
-78.91
-74.67
-64.76
-49.89
-31.89
-13.19
3.91
17.84
27.98
34.47
37.92
39.08
38.64
37.23
35.42
33.71
32.48
31.94
32.06
32.60
33.28
33.82
34.14
34.30
34.48
34.87
35.52
36.33
37.11
37.58
37.52
36.78
35.33
33.26
30.72
27.88
24.89
21.88
18.90
16.01
13.24
10.56
7.94
5.29
2.56
-0.29
-3.18
-5.98
-8.56
-10.88
-13.07
-15.38
-18.07
-21.26
-24.89
-28.74
-32.48
-35.86
-38.76
-41.30
-43.78
-46.69
-50.51
-55.64
-62.06
-69.19
-75.79
-80.11
-80.32
-75.10
-64.19
-48.57
-30.28
-11.77
4.77
17.97
27.40
33.43
36.77
38.16
38.21
37.36
36.03
34.59
33.38
32.61
32.30
32.30
32.42
32.49
32.49
32.55
32.88
33.63
34.81
36.21
37.46
38.11
37.89
36.75
34.91
32.74
30.56
28.54
26.61
24.54
22.12
19.21
15.90
12.45
9.20
6.46
4.36
2.83
1.56
0.16
-1.70
-4.08
-6.84
-9.63
-12.13
-14.23
-16.11
-18.12
-20.60
-23.72
-27.32
-31.07
-34.56
-37.55
-40.08
-42.41
-45.01
-48.34
-52.78
-58.49
-65.25
-72.35
-78.55
-82.22
-81.76
-76.08
-65.02
-49.57
-31.60
-13.38
3.05
16.37
26.13
32.58
36.39
38.25
38.75
38.30
37.21
35.76
34.21
32.79
31.66
30.86
30.41
30.31
30.57
31.24
32.31
33.70
35.26
36.73
37.86
38.42
38.26
37.30
35.59
33.30
30.72
28.17
25.90
23.93
22.06
19.97
17.39
14.32
11.05
8.02
5.62
3.96
2.78
1.60
-0.05
-2.36
-5.20
-8.18
-10.90
-13.11
-14.87
-16.46
-18.24
-20.50
-23.35
-26.68
-30.25
-33.77
-36.98
-39.75
-42.14
-44.45
-47.10
-50.61
-55.29
-61.08
-67.29
-72.69
-75.65
-74.58
-68.51
-57.40
-42.29
-25.05
-7.83
7.49
19.75
28.56
34.21
37.24
38.24
37.66
35.84
33.14
30.02
26.97
24.45
22.74
21.90
21.83
22.36
23.33
24.68
26.37
28.31
30.30
32.05
33.17
33.38
32.58
30.88
28.59
26.04
23.50
21.03
18.50
15.71
12.47
8.76
4.76
0.81
-2.78
-5.81
-8.31
-10.53
-12.88
-15.70
-19.20
-23.32
-27.74
-32.05
-35.86
-39.01
-41.58
-43.93
-46.57
-50.09
-54.91
-61.06
-67.93
-74.20
-78.03
-77.59
-71.67
-60.24
-44.51
-26.59
-8.82
6.95
19.63
29.00
35.30
38.98
40.49
40.27
38.84
36.83
34.83
33.32
32.48
32.21
32.22
32.23
32.11
31.98
32.12
32.81
34.13
35.90
37.64
38.82
39.00
38.04
36.07
33.41
30.44
27.43
24.54
21.82
19.26
16.74
14.05
11.01
7.47
3.52
-0.59
-4.43
-7.70
-10.35
-12.65
-15.07
-18.05
-21.75
-26.02
-30.45
-34.60
-38.20
-41.24
-43.97
-46.81
-50.22
-54.60
-60.16
-66.69
-73.37
-78.81
-81.25
-79.05
-71.34
-58.40
-41.65
-23.26
-5.51
9.86
21.88
30.37
35.68
38.39
39.18
38.69
37.53
36.22
35.09
34.30
33.78
33.42
33.13
32.91
32.86
33.17
33.95
35.25
36.92
38.68
40.17
41.00
40.90
39.75
37.64
34.80
31.53
28.15
24.94
22.10
19.68
17.58
15.59
13.42
10.84
7.71
4.11
0.30
-3.38
-6.63
-9.30
-11.45
-13.38
-15.45
-18.01
-21.26
-25.14
-29.39
-33.66
-37.59
-41.04
-44.06
-46.89
-49.99
-53.86
-58.90
-65.14
-71.99
-78.12
-81.68
-80.82
-74.30
-62.09
-45.47
-26.68
-8.20
7.92
20.55
29.51
35.23
38.38
39.61
39.44
38.36
36.82
35.30
34.18
33.66
33.70
34.10
34.59
35.00
35.31
35.65
36.20
37.03
38.06
39.07
39.75
39.81
39.10
37.59
35.41
32.76
29.90
27.03
24.25
21.59
19.02
16.48
13.93
11.37
8.83
6.31
3.81
1.32
-1.10
-3.38
-5.46
-7.34
-9.15
-11.12
-13.44
-16.23
-19.44
-22.85
-26.20
-29.26
-31.95
-34.37
-36.78
-39.55
-43.08
-47.67
-53.35
-59.68
-65.65
-69.80
-70.52
-66.57
-57.55
-44.10
-27.83
-10.87
4.75
17.51
26.69
32.35
35.03
35.47
34.39
32.34
29.77
27.02
24.44
22.31
20.86
20.18
20.21
20.80
21.79
23.01
24.36
25.77
27.11
28.21
28.83
28.75
27.80
25.93
23.26
20.04
16.56
13.13
9.91
6.92
4.05
1.12
-2.05
-5.57
-9.45
-13.60
-17.82
-21.84
-25.44
-28.54
-31.22
-33.84
-36.84
-40.72
-45.78
-51.99
-58.87
-65.41
-70.19
-71.63
-68.49
-60.29
-47.57
-31.88
-15.31
0.12
12.97
22.60
29.11
33.03
35.00
35.59
35.30
34.52
33.60
32.78
32.15
31.68
31.27
30.86
30.53
30.37
30.54
31.10
32.00
33.05
33.97
34.48
34.37
33.54
32.01
29.91
27.37
24.53
21.43
18.09
14.55
10.86
7.15
3.57
0.24
-2.82
-5.74
-8.73
-12.03
-15.78
-19.92
-24.22
-28.35
-32.07
-35.31
-38.18
-41.03
-44.34
-48.58
-54.04
-60.60
-67.46
-73.19
-75.96
-74.12
-66.81
-54.39
-38.40
-21.04
-4.55
9.48
20.29
27.89
32.74
35.44
36.58
36.67
36.19
35.56
35.11
35.01
35.30
35.86
36.49
36.97
37.18
37.15
37.10
37.31
37.96
39.03
40.20
41.02
41.05
40.13
38.37
36.08
33.59
31.09
28.60
26.03
23.28
20.38
17.44
14.62
12.05
9.75
7.63
5.53
3.30
0.89
-1.64
-4.17
-6.59
-8.88
-11.12
-13.48
-16.13
-19.19
-22.71
-26.61
-30.71
-34.79
-38.56
-41.82
-44.56
-47.00
-49.65
-53.14
-58.02
-64.49
-72.08
-79.55
-85.04
-86.51
-82.36
-72.07
-56.50
-37.70
-18.30
-0.74
13.39
23.58
30.15
33.88
35.54
35.82
35.24
34.30
33.47
33.10
33.33
33.98
34.71
35.16
35.19
34.93
34.75
35.00
35.90
37.31
38.87
40.03
40.35
39.64
37.99
35.73
33.24
30.83
28.61
26.55
24.48
22.25
19.79
17.14
14.46
11.91
9.64
7.68
5.95
4.26
2.41
0.26
-2.24
-4.93
-7.61
-10.03
-12.05
-13.71
-15.28
-17.10
-19.51
-22.61
-26.25
-30.07
-33.64
-36.68
-39.15
-41.35
-43.76
-46.95
-51.30
-56.86
-63.10
-68.89
-72.67
-72.78
-67.99
-58.04
-43.78
-27.00
-9.91
5.47
17.85
26.74
32.36
35.26
36.07
35.34
33.56
31.20
28.70
26.44
24.67
23.46
22.76
22.50
22.60
23.09
24.04
25.50
27.41
29.55
31.52
32.85
33.08
32.02
29.80
26.79
23.53
20.43
17.64
15.06
12.40
9.42
6.07
2.49
-1.06
-4.34
-7.26
-9.88
-12.41
-15.08
-18.10
-21.57
-25.44
-29.53
-33.56
-37.27
-40.51
-43.36
-46.13
-49.35
-53.57
-59.06
-65.62
-72.33
-77.65
-79.74
-76.99
-68.63
-55.11
-38.01
-19.64
-2.30
12.31
23.38
30.95
35.59
38.02
38.87
38.66
37.79
36.62
35.45
34.50
33.85
33.51
33.41
33.55
33.93
34.61
35.55
36.67
37.77
38.66
39.16
39.14
38.55
37.33
35.47
32.92
29.79
26.30
22.81
19.64
16.95
14.60
12.24
9.50
6.16
2.29
-1.81
-5.75
-9.23
-12.19
-14.74
-17.13
-19.60
-22.29
-25.24
-28.40
-31.65
-34.86
-37.90
-40.74
-43.43
-46.18
-49.36
-53.42
-58.72
-65.21
-72.25
-78.40
-81.78
-80.54
-73.54
-60.88
-43.95
-25.02
-6.51
9.67
22.51
31.91
38.30
42.26
44.28
44.73
43.99
42.56
41.01
39.85
39.36
39.49
39.93
40.31
40.40
40.25
40.10
40.29
40.99
42.12
43.33
44.14
44.15
43.16
41.27
38.78
36.08
33.45
31.01
28.68
26.26
23.56
20.44
16.95
13.27
9.67
6.46
3.78
1.63
-0.24
-2.13
-4.33
-6.90
-9.71
-12.54
-15.22
-17.76
-20.32
-23.14
-26.36
-29.97
-33.79
-37.57
-41.09
-44.27
-47.19
-50.11
-53.42
-57.58
-62.97
-69.64
-77.12
-84.21
-89.13
-89.97
-85.24
-74.47
-58.47
-39.24
-19.33
-1.08
13.91
25.08
32.72
37.52
40.19
41.25
41.06
39.98
38.44
36.90
35.73
35.06
34.80
34.73
34.69
34.66
34.81
35.34
36.37
37.82
39.40
40.68
41.27
40.90
39.60
37.58
35.15
32.59
30.03
27.46
24.82
22.05
19.17
16.28
13.45
10.75
8.14
5.55
2.89
0.12
-2.74
-5.60
-8.36
-10.92
-13.29
-15.59
-18.07
-20.97
-24.40
-28.31
-32.42
-36.41
-40.00
-43.11
-45.90
-48.73
-52.08
-56.45
-62.19
-69.21
-76.78
-83.45
-87.21
-86.11
-78.89
-65.57
-47.61
-27.45
-7.79
9.20
22.37
31.57
37.35
40.50
41.74
41.62
40.61
39.12
37.52
36.13
35.08
34.34
33.75
33.20
32.66
32.25
32.23
32.77
33.88
35.33
36.70
37.53
37.47
36.39
34.41
31.78
28.75
25.51
22.10
18.51
14.72
10.79
6.85
3.04
-0.56
-4.02
-7.54
-11.39
-15.71
-20.46
-25.30
-29.82
-33.67
-36.74
-39.27
-41.73
-44.70
-48.74
-54.16
-60.87
-68.16
-74.71
-78.71
-78.35
-72.42
-60.83
-44.72
-26.22
-7.76
8.61
21.65
31.01
37.01
40.24
41.36
40.93
39.49
37.50
35.41
33.52
32.01
30.92
30.19
29.73
29.45
29.33
29.42
29.76
30.39
31.27
32.25
33.11
33.54
33.25
31.99
29.67
26.35
22.29
17.90
13.60
9.73
6.40
3.46
0.57
-2.64
-6.43
-10.78
-15.44
-20.04
-24.22
-27.78
-30.74
-33.31
-35.85
-38.81
-42.64
-47.62
-53.66
-60.10
-65.64
-68.59
-67.36
-60.98
-49.57
-34.39
-17.45
-0.91
13.45
24.62
32.30
36.74
38.38
37.79
35.57
32.37
28.85
25.56
22.86
20.86
19.52
18.71
18.37
18.49
19.09
20.12
21.42
22.72
23.69
23.97
23.32
21.63
19.00
15.70
12.08
8.44
4.90
1.35
-2.47
-6.81
-11.72
-16.98
-22.19
-26.90
-30.87
-34.19
-37.33
-40.97
-45.77
-52.03
-59.44
-66.98
-73.05
-75.82
-73.82
-66.38
-53.93
-37.95
-20.58
-3.99
10.13
20.93
28.39
33.09
35.75
37.03
37.36
37.00
36.15
35.08
34.01
33.11
32.45
31.98
31.61
31.32
31.16
31.26
31.71
32.49
33.42
34.21
34.45
33.75
31.84
28.73
24.70
20.25
15.89
12.00
8.64
5.61
2.59
-0.79
-4.75
-9.34
-14.45
-19.81
-25.06
-29.81
-33.82
-37.07
-39.87
-42.78
-46.52
-51.63
-58.22
-65.70
-72.73
-77.45
-77.95
-72.91
-62.12
-46.66
-28.63
-10.52
5.56
18.35
27.56
33.65
37.32
39.30
40.08
40.07
39.63
39.13
38.91
39.20
39.97
40.99
41.90
42.39
42.36
41.97
41.58
41.55
42.05
42.91
43.72
43.99
43.37
41.81
39.52
36.86
34.12
31.41
28.65
25.77
22.73
19.66
16.76
14.16
11.85
9.68
7.41
4.87
1.98
-1.17
-4.42
-7.56
-10.43
-12.94
-15.17
-17.36
-19.81
-22.82
-26.54
-30.84
-35.41
-39.85
-43.88
-47.44
-50.71
-54.10
-58.10
-63.18
-69.54
-76.92
-84.38
-90.30
-92.68
-89.70
-80.45
-65.37
-46.26
-25.75
-6.48
9.61
21.67
29.85
34.82
37.44
38.43
38.39
37.82
37.18
36.82
36.94
37.50
38.33
39.16
39.87
40.44
40.98
41.60
42.39
43.32
44.24
44.89
44.99
44.34
42.84
40.61
37.93
35.11
32.41
29.94
27.61
25.23
22.66
19.85
16.93
14.11
11.62
9.59
7.96
6.48
4.84
2.76
0.14
-2.86
-5.90
-8.59
-10.71
-12.35
-13.87
-15.75
-18.33
-21.69
-25.58
-29.59
-33.33
-36.58
-39.38
-41.93
-44.55
-47.62
-51.53
-56.55
-62.63
-69.18
-74.91
-78.06
-76.85
-70.18
-58.07
-41.81
-23.61
-5.90
9.35
21.06
29.07
33.87
36.16
36.62
35.73
33.90
31.55
29.17
27.20
25.95
25.53
25.81
26.58
27.58
28.69
29.92
31.33
32.92
34.56
35.95
36.69
36.43
35.03
32.62
29.54
26.29
23.26
20.66
18.41
16.26
13.88
11.06
7.76
4.11
0.37
-3.19
-6.36
-9.08
-11.49
-13.86
-16.51
-19.69
-23.44
-27.58
-31.77
-35.64
-38.99
-41.84
-44.46
-47.33
-50.99
-55.91
-62.23
-69.58
-76.86
-82.40
-84.27
-80.92
-71.70
-57.24
-39.31
-20.28
-2.49
12.39
23.59
31.16
35.70
38.00
38.80
38.71
38.18
37.55
37.05
36.80
36.84
37.13
37.54
37.97
38.36
38.75
39.26
40.03
41.14
42.45
43.65
44.29
44.00
42.60
40.22
37.23
34.07
31.08
28.37
25.83
23.25
20.52
17.63
14.73
11.94
9.35
6.85
4.29
1.51
-1.52
-4.67
-7.75
-10.51
-12.91
-15.05
-17.19
-19.67
-22.73
-26.44
-30.65
-35.03
-39.21
-42.95
-46.18
-49.10
-52.13
-55.80
-60.65
-66.94
-74.45
-82.21
-88.56
-91.37
-88.75
-79.69
-64.57
-45.18
-24.22
-4.48
11.97
24.17
32.26
37.01
39.40
40.22
40.04
39.31
38.43
37.75
37.49
37.66
38.05
38.38
38.47
38.32
38.14
38.25
38.88
40.09
41.68
43.26
44.35
44.52
43.53
41.42
38.49
35.22
32.09
29.39
27.15
25.16
23.08
20.65
17.82
14.76
11.77
9.10
6.81
4.76
2.64
0.16
-2.78
-6.04
-9.30
-12.20
-14.56
-16.48
-18.28
-20.45
-23.31
-26.96
-31.20
-35.63
-39.88
-43.67
-47.00
-50.01
-53.02
-56.43
-60.69
-66.19
-72.99
-80.55
-87.56
-92.08
-92.03
-85.90
-73.41
-55.73
-35.16
-14.42
4.08
18.88
29.53
36.41
40.31
42.05
42.34
41.65
40.39
38.87
37.41
36.21
35.39
34.96
34.84
34.95
35.29
35.92
36.91
38.26
39.87
41.46
42.69
43.20
42.75
41.30
39.00
36.15
33.14
30.27
27.71
25.44
23.30
21.04
18.50
15.63
12.53
9.39
6.46
3.88
1.69
-0.25
-2.11
-4.07
-6.24
-8.57
-10.96
-13.30
-15.54
-17.80
-20.25
-23.09
-26.43
-30.19
-34.18
-38.11
-41.71
-44.88
-47.70
-50.44
-53.49
-57.34
-62.37
-68.72
-76.06
-83.36
-88.95
-90.81
-87.19
-77.27
-61.58
-41.93
-20.93
-1.15
15.53
28.27
37.05
42.43
45.04
45.46
44.20
41.84
39.03
36.47
34.67
33.82
33.79
34.17
34.59
34.88
35.14
35.65
36.65
38.16
39.88
41.33
42.05
41.78
40.57
38.70
36.53
34.34
32.22
30.09
27.84
25.33
22.56
19.60
16.55
13.52
10.56
7.71
5.01
2.50
0.20
-1.97
-4.10
-6.31
-8.63
-10.98
-13.24
-15.34
-17.38
-19.57
-22.12
-25.17
-28.65
-32.31
-35.84
-39.02
-41.82
-44.41
-47.11
-50.36
-54.55
-59.94
-66.39
-73.18
-78.94
-81.82
-80.01
-72.41
-59.08
-41.41
-21.75
-2.64
13.90
26.83
36.05
42.03
45.36
46.53
45.86
43.66
40.41
36.73
33.23
30.40
28.43
27.31
26.91
27.10
27.80
29.00
30.64
32.61
34.68
36.53
37.82
38.31
37.88
36.55
34.47
31.83
28.86
25.72
22.56
19.47
16.51
13.67
10.87
7.99
4.89
1.54
-2.03
-5.63
-8.99
-11.93
-14.39
-16.52
-18.64
-21.10
-24.13
-27.84
-32.08
-36.55
-40.89
-44.80
-48.13
-50.96
-53.63
-56.71
-60.79
-66.29
-73.13
-80.53
-86.93
-90.33
-88.83
-81.26
-67.69
-49.50
-29.00
-8.72
9.23
23.61
34.06
40.91
44.76
46.30
46.13
44.80
42.88
40.88
39.19
38.00
37.25
36.76
36.34
35.92
35.63
35.72
36.44
37.83
39.72
41.68
43.19
43.84
43.41
42.00
39.87
37.37
34.76
32.17
29.57
26.81
23.82
20.59
17.24
13.95
10.87
8.04
5.37
2.69
-0.13
-3.16
-6.30
-9.37
-12.18
-14.63
-16.78
-18.83
-21.10
-23.89
-27.36
-31.50
-36.05
-40.60
-44.73
-48.12
-50.79
-53.10
-55.74
-59.49
-64.92
-71.98
-79.82
-86.80
-90.81
-89.90
-82.88
-69.76
-51.79
-31.20
-10.55
7.95
22.85
33.59
40.38
43.87
44.84
44.04
42.17
39.88
37.73
36.11
35.17
34.78
34.67
34.55
34.31
34.08
34.12
34.68
35.88
37.58
39.44
41.03
41.93
41.85
40.70
38.60
35.81
32.64
29.40
26.24
23.21
20.28
17.39
14.52
11.62
8.66
5.55
2.25
-1.20
-4.65
-7.85
-10.62
-12.93
-14.92
-16.87
-19.10
-21.78
-24.94
-28.43
-32.03
-35.53
-38.81
-41.94
-45.14
-48.80
-53.28
-58.76
-65.03
-71.30
-76.17
-77.97
-75.17
-66.98
-53.74
-36.94
-18.76
-1.45
13.37
24.97
33.38
39.04
42.38
43.65
43.04
40.83
37.60
34.11
31.06
28.91
27.82
27.66
28.20
29.25
30.66
32.32
34.09
35.79
37.21
38.17
38.48
38.02
36.78
34.82
32.33
29.55
26.71
23.93
21.24
18.56
15.76
12.73
9.46
5.98
2.43
-1.03
-4.24
-7.06
-9.47
-11.55
-13.52
-15.70
-18.40
-21.84
-26.05
-30.81
-35.69
-40.19
-43.92
-46.81
-49.17
-51.64
-55.01
-59.91
-66.51
-74.24
-81.76
-87.13
-88.27
-83.65
-72.83
-56.68
-37.27
-17.21
1.11
16.08
27.10
34.43
38.74
40.79
41.26
40.70
39.65
38.57
37.81
37.51
37.60
37.83
37.99
37.99
37.95
38.09
38.61
39.60
40.93
42.31
43.34
43.68
43.11
41.62
39.37
36.68
33.88
31.24
28.88
26.73
24.60
22.28
19.65
16.76
13.79
10.94
8.36
6.00
3.70
1.30
-1.30
-4.00
-6.61
-9.00
-11.17
-13.30
-15.67
-18.49
-21.84
-25.62
-29.61
-33.57
-37.28
-40.64
-43.67
-46.60
-49.83
-53.86
-59.11
-65.62
-72.86
-79.60
-84.10
-84.58
-79.71
-69.12
-53.66
-35.19
-16.10
1.37
15.67
26.16
33.02
36.87
38.49
38.55
37.64
36.26
34.86
33.76
33.13
32.95
33.03
33.19
33.31
33.43
33.70
34.28
35.26
36.60
38.06
39.28
39.90
39.67
38.54
36.68
34.35
31.81
29.19
26.50
23.73
20.93
18.19
15.63
13.29
11.07
8.84
6.44
3.83
1.12
-1.56
-4.02
-6.16
-7.98
-9.60
-11.22
-13.11
-15.51
-18.52
-22.07
-25.88
-29.56
-32.76
-35.32
-37.40
-39.42
-41.97
-45.59
-50.55
-56.63
-63.03
-68.37
-70.97
-69.31
-62.54
-50.83
-35.42
-18.32
-1.73
12.57
23.55
31.00
35.29
37.07
36.97
35.50
33.11
30.25
27.45
25.20
23.89
23.60
24.15
25.18
26.34
27.42
28.42
29.48
30.70
32.04
33.25
33.98
33.92
32.94
31.10
28.64
25.86
23.05
20.38
17.87
15.37
12.66
9.52
5.90
1.94
-2.04
-5.64
-8.63
-11.00
-13.05
-15.22
-17.91
-21.29
-25.26
-29.47
-33.50
-37.04
-40.01
-42.57
-45.11
-48.10
-51.98
-57.10
-63.51
-70.81
-77.98
-83.39
-85.17
-81.77
-72.53
-58.09
-40.25
-21.42
-3.89
10.75
21.86
29.55
34.35
36.90
37.80
37.64
37.00
36.40
36.18
36.39
36.83
37.21
37.30
37.08
36.77
36.71
37.20
38.34
39.96
41.65
42.93
43.44
43.04
41.83
40.07
38.01
35.77
33.38
30.78
27.95
24.94
21.86
18.82
15.89
13.08
10.33
7.59
4.83
2.06
-0.67
-3.31
-5.83
-8.23
-10.57
-13.00
-15.71
-18.86
-22.51
-26.56
-30.77
-34.84
-38.49
-41.64
-44.38
-47.04
-50.08
-54.03
-59.31
-66.05
-73.81
-81.49
-87.37
-89.45
-86.09
-76.60
-61.58
-42.88
-23.01
-4.46
11.04
22.70
30.62
35.40
37.76
38.37
37.82
36.68
35.52
34.80
34.72
35.18
35.88
36.45
36.70
36.66
36.52
36.54
36.90
37.65
38.64
39.64
40.36
40.55
40.03
38.75
36.77
34.25
31.39
28.35
25.26
22.17
19.12
16.15
13.25
10.39
7.48
4.45
1.27
-1.93
-4.94
-7.55
-9.64
-11.33
-12.92
-14.78
-17.19
-20.25
-23.81
-27.59
-31.23
-34.49
-37.31
-39.88
-42.57
-45.86
-50.24
-55.95
-62.75
-69.72
-75.27
-77.51
-74.78
-66.33
-52.69
-35.54
-17.22
0.01
14.61
25.88
33.88
38.95
41.50
41.87
40.45
37.78
34.58
31.58
29.33
28.10
27.86
28.41
29.49
30.88
32.43
34.05
35.64
37.08
38.22
38.87
38.89
38.16
36.69
34.57
31.96
29.00
25.86
22.68
19.56
16.53
13.55
10.50
7.23
3.72
0.03
-3.59
-6.88
-9.70
-12.09
-14.32
-16.80
-19.84
-23.59
-27.93
-32.50
-36.84
-40.60
-43.62
-46.02
-48.24
-50.92
-54.73
-60.16
-67.25
-75.39
-83.27
-89.01
-90.63
-86.57
-76.35
-60.71
-41.57
-21.43
-2.69
12.93
24.67
32.62
37.42
39.87
40.76
40.69
40.17
39.60
39.22
39.11
39.17
39.20
39.04
38.68
38.29
38.21
38.75
40.01
41.84
43.77
45.25
45.81
45.26
43.67
41.33
38.60
35.72
32.79
29.82
26.73
23.53
20.28
17.12
14.15
11.39
8.77
6.12
3.33
0.38
-2.60
-5.42
-7.91
-10.07
-12.11
-14.36
-17.14
-20.64
-24.78
-29.24
-33.62
-37.57
-40.91
-43.72
-46.29
-49.09
-52.65
-57.45
-63.72
-71.15
-78.76
-84.83
-87.31
-84.40
-75.23
-60.35
-41.61
-21.64
-3.02
12.42
23.91
31.58
36.05
38.03
38.13
36.93
35.06
33.23
32.04
31.78
32.34
33.23
33.92
34.07
33.72
33.25
33.15
33.80
35.23
37.17
39.04
40.21
40.21
38.81
36.15
32.71
29.06
25.72
22.90
20.47
18.06
15.25
11.87
8.03
4.11
0.58
-2.31
-4.61
-6.69
-9.06
-12.10
-15.91
-20.21
-24.50
-28.28
-31.33
-33.79
-36.06
-38.67
-42.12
-46.75
-52.64
-59.51
-66.60
-72.59
-75.80
-74.56
-67.88
-55.84
-39.76
-21.81
-4.38
10.63
22.20
30.19
35.09
37.63
38.49
38.21
37.18
35.73
34.11
32.58
31.33
30.48
30.08
30.08
30.42
31.07
32.07
33.48
35.25
37.15
38.77
39.56
39.09
37.22
34.19
30.55
26.87
23.60
20.81
18.30
15.68
12.68
9.17
5.33
1.43
-2.19
-5.40
-8.21
-10.88
-13.71
-16.98
-20.79
-25.04
-29.46
-33.74
-37.59
-40.88
-43.72
-46.42
-49.50
-53.53
-58.96
-65.85
-73.55
-80.71
-85.39
-85.64
-80.13
-68.70
-52.50
-33.70
-14.79
2.10
15.69
25.65
32.31
36.34
38.42
39.14
38.97
38.35
37.66
37.21
37.10
37.31
37.67
38.02
38.32
38.64
39.14
39.92
40.96
42.08
42.94
43.24
42.79
41.57
39.74
37.49
35.02
32.42
29.74
26.97
24.13
21.25
18.37
15.53
12.74
10.00
7.27
4.46
1.54
-1.52
-4.63
-7.63
-10.37
-12.84
-15.18
-17.69
-20.69
-24.35
-28.56
-33.01
-37.28
-41.04
-44.20
-46.97
-49.75
-53.06
-57.42
-63.11
-70.00
-77.36
-83.76
-87.34
-86.27
-79.40
-66.75
-49.62
-30.28
-11.18
5.62
19.01
28.74
35.18
38.88
40.39
40.21
38.82
36.83
34.89
33.51
32.99
33.26
34.03
34.91
35.61
36.04
36.30
36.60
37.14
37.97
38.95
39.80
40.15
39.75
38.50
36.51
34.01
31.20
28.19
24.99
21.57
18.02
14.57
11.53
9.13
7.36
5.92
4.40
2.42
-0.16
-3.15
-6.18
-8.88
-11.07
-12.89
-14.66
-16.73
-19.30
-22.33
-25.59
-28.78
-31.73
-34.44
-37.04
-39.75
-42.80
-46.45
-50.90
-56.26
-62.26
-68.07
-72.25
-73.08
-69.13
-59.86
-45.94
-29.12
-11.65
4.40
17.67
27.63
34.40
38.43
40.16
40.01
38.34
35.59
32.29
29.04
26.35
24.57
23.87
24.16
25.25
26.85
28.69
30.56
32.25
33.61
34.50
34.85
34.61
33.81
32.50
30.75
28.63
26.27
23.78
21.26
18.72
16.14
13.44
10.58
7.56
4.45
1.37
-1.62
-4.44
-7.04
-9.40
-11.54
-13.59
-15.77
-18.39
-21.65
-25.57
-29.91
-34.23
-38.10
-41.26
-43.70
-45.70
-47.78
-50.59
-54.74
-60.58
-67.87
-75.63
-82.14
-85.29
-83.26
-75.15
-61.37
-43.62
-24.32
-5.93
9.72
21.71
30.01
35.12
37.80
38.79
38.71
38.07
37.27
36.60
36.18
35.95
35.76
35.44
34.96
34.43
34.12
34.29
35.12
36.53
38.25
39.86
40.92
41.11
40.32
38.63
36.29
33.65
31.00
28.51
26.19
23.92
21.55
19.00
16.32
13.62
11.08
8.81
6.81
4.99
3.17
1.18
-1.08
-3.62
-6.31
-8.90
-11.18
-13.07
-14.74
-16.56
-18.91
-22.05
-25.87
-30.01
-33.97
-37.34
-40.04
-42.31
-44.58
-47.37
-51.11
-56.02
-62.08
-68.84
-75.31
-79.97
-81.02
-76.95
-67.09
-52.06
-33.68
-14.50
3.03
17.22
27.40
33.87
37.36
38.75
38.68
37.64
36.04
34.25
32.62
31.34
30.48
29.91
29.45
29.03
28.69
28.59
28.91
29.72
30.92
32.24
33.34
33.89
33.66
32.64
30.98
28.93
26.80
24.76
22.83
20.92
18.86
16.55
13.99
11.28
8.52
5.80
3.14
0.57
-1.84
-3.97
-5.72
-7.09
-8.21
-9.32
-10.70
-12.60
-15.10
-18.15
-21.55
-24.96
-28.09
-30.70
-32.78
-34.55
-36.45
-39.02
-42.75
-47.85
-53.93
-59.96
-64.31
-65.20
-61.25
-52.05
-38.42
-22.16
-5.53
9.44
21.49
30.15
35.67
38.58
39.48
38.79
36.88
34.08
30.79
27.46
24.54
22.34
20.94
20.24
20.04
20.19
20.69
21.67
23.24
25.30
27.48
29.20
29.88
29.20
27.21
24.29
20.96
17.70
14.77
12.17
9.73
7.22
4.48
1.50
-1.60
-4.62
-7.43
-10.00
-12.47
-15.08
-17.98
-21.27
-24.84
-28.46
-31.88
-34.91
-37.46
-39.64
-41.72
-44.14
-47.42
-52.02
-58.03
-64.99
-71.73
-76.48
-77.38
-73.02
-63.01
-48.20
-30.49
-12.32
4.07
17.18
26.49
32.31
35.41
36.65
36.71
36.04
34.99
33.84
32.85
32.13
31.64
31.22
30.71
30.07
29.49
29.30
29.76
30.93
32.58
34.30
35.67
36.30
36.02
34.81
32.87
30.49
28.02
25.75
23.75
21.95
20.11
18.02
15.65
13.02
10.25
7.40
4.46
1.37
-1.81
-4.89
-7.63
-9.80
-11.37
-12.52
-13.66
-15.26
-17.68
-21.05
-25.18
-29.63
-33.84
-37.34
-40.00
-42.04
-44.01
-46.63
-50.52
-56.03
-62.95
-70.38
-76.76
-80.17
-78.86
-71.83
-59.31
-42.79
-24.53
-6.91
8.25
20.00
28.21
33.27
35.77
36.28
35.36
33.58
31.53
29.69
28.43
27.81
27.73
27.89
28.01
27.98
27.84
27.87
28.38
29.56
31.38
33.48
35.37
36.56
36.80
36.10
34.71
33.00
31.24
29.57
28.00
26.43
24.75
22.90
20.87
18.71
16.45
14.14
11.80
9.46
7.14
4.86
2.63
0.41
-1.85
-4.17
-6.50
-8.76
-10.86
-12.83
-14.85
-17.19
-20.05
-23.43
-27.09
-30.61
-33.64
-36.03
-37.92
-39.71
-41.90
-45.05
-49.56
-55.54
-62.58
-69.62
-75.03
-76.94
-73.83
-65.08
-51.26
-34.08
-15.87
1.05
15.00
25.18
31.63
34.99
36.04
35.51
33.97
31.82
29.40
27.04
25.03
23.49
22.38
21.60
21.03
20.73
20.91
21.80
23.54
25.96
28.68
31.15
32.82
33.33
32.52
30.50
27.58
24.24
20.99
18.18
15.96
14.19
12.53
10.59
8.11
5.06
1.60
-1.97
-5.34
-8.28
-10.74
-12.86
-14.90
-17.15
-19.82
-22.93
-26.33
-29.75
-32.98
-35.92
-38.64
-41.41
-44.59
-48.60
-53.74
-59.96
-66.62
-72.44
-75.65
-74.53
-68.01
-56.19
-40.37
-22.70
-5.51
9.36
20.88
28.90
33.79
36.21
36.84
36.27
35.03
33.59
32.33
31.48
31.08
31.01
31.10
31.20
31.24
31.29
31.50
32.00
32.87
34.01
35.20
36.11
36.45
36.06
34.97
33.38
31.51
29.52
27.41
25.07
22.40
19.42
16.26
13.19
10.40
7.94
5.71
3.49
1.08
-1.55
-4.29
-6.93
-9.30
-11.39
-13.36
-15.52
-18.16
-21.44
-25.30
-29.44
-33.52
-37.22
-40.42
-43.19
-45.83
-48.72
-52.32
-57.00
-62.85
-69.45
-75.76
-80.16
-80.85
-76.42
-66.41
-51.62
-33.92
-15.66
0.99
14.62
24.71
31.49
35.51
37.44
37.83
37.17
35.89
34.41
33.07
32.07
31.46
31.15
31.01
30.96
30.99
31.14
31.54
32.28
33.41
34.84
36.29
37.39
37.76
37.16
35.60
33.36
30.84
28.43
26.29
24.35
22.38
20.16
17.64
14.94
12.28
9.86
7.68
5.62
3.46
1.05
-1.60
-4.34
-6.98
-9.41
-11.66
-13.92
-16.41
-19.30
-22.64
-26.31
-30.09
-33.72
-37.03
-39.97
-42.67
-45.44
-48.75
-53.05
-58.63
-65.32
-72.36
-78.28
-81.29
-79.71
-72.64
-60.34
-44.21
-26.40
-9.12
5.95
17.94
26.74
32.69
36.28
38.01
38.33
37.67
36.47
35.13
33.89
32.85
32.05
31.46
31.13
31.14
31.57
32.51
33.94
35.75
37.75
39.61
40.98
41.53
41.10
39.71
37.64
35.26
32.90
30.70
28.59
26.35
23.77
20.76
17.47
14.17
11.14
8.58
6.48
4.64
2.79
0.71
-1.65
-4.15
-6.57
-8.69
-10.52
-12.29
-14.32
-16.88
-20.02
-23.50
-26.96
-30.06
-32.68
-34.90
-36.98
-39.23
-42.03
-45.74
-50.65
-56.69
-63.25
-69.02
-72.18
-71.03
-64.54
-52.87
-37.40
-20.21
-3.50
11.07
22.63
30.99
36.41
39.28
40.05
39.12
37.00
34.20
31.24
28.52
26.27
24.59
23.47
22.87
22.80
23.27
24.31
25.88
27.83
29.92
31.83
33.24
33.87
33.53
32.19
29.99
27.21
24.24
21.39
18.86
16.62
14.49
12.16
9.41
6.13
2.42
-1.50
-5.31
-8.78
-11.78
-14.36
-16.75
-19.22
-22.02
-25.26
-28.86
-32.63
-36.29
-39.65
-42.65
-45.42
-48.26
-51.61
-55.91
-61.42
-67.98
-74.79
-80.42
-83.04
-80.98
-73.34
-60.37
-43.53
-25.05
-7.23
8.14
20.14
28.67
34.18
37.31
38.70
38.89
38.36
37.51
36.69
36.11
35.82
35.76
35.81
35.83
35.78
35.71
35.73
36.02
36.71
37.78
39.02
40.07
40.51
40.11
38.86
36.97
34.78
32.53
30.27
27.88
25.24
22.29
19.17
16.07
13.10
10.25
7.33
4.20
0.85
-2.53
-5.62
-8.21
-10.29
-12.14
-14.18
-16.82
-20.21
-24.21
-28.49
-32.65
-36.40
-39.67
-42.63
-45.63
-49.09
-53.44
-58.94
-65.49
-72.45
-78.61
-82.31
-81.85
-76.07
-64.80
-49.06
-30.80
-12.38
4.15
17.50
27.27
33.79
37.71
39.74
40.47
40.34
39.71
38.86
37.98
37.16
36.42
35.71
35.06
34.55
34.35
34.62
35.41
36.61
37.98
39.19
39.92
39.93
39.15
37.64
35.64
33.43
31.23
29.15
27.11
24.94
22.48
19.68
16.65
13.57
10.63
7.89
5.34
2.90
0.50
-1.84
-4.07
-6.17
-8.13
-10.06
-12.11
-14.46
-17.28
-20.63
-24.39
-28.30
-32.04
-35.36
-38.20
-40.73
-43.32
-46.42
-50.46
-55.70
-62.06
-68.99
-75.35
-79.50
-79.75
-74.85
-64.55
-49.77
-32.43
-14.75
1.30
14.53
24.52
31.45
35.76
37.92
38.37
37.57
35.98
34.10
32.33
30.90
29.89
29.26
28.92
28.80
28.87
29.17
29.74
30.65
31.86
33.24
34.50
35.25
35.13
33.94
31.74
28.86
25.77
22.89
20.43
18.35
16.37
14.13
11.44
8.24
4.72
1.17
-2.09
-4.94
-7.43
-9.82
-12.41
-15.44
-18.95
-22.77
-26.60
-30.16
-33.29
-36.04
-38.60
-41.34
-44.61
-48.78
-54.02
-60.23
-66.75
-72.38
-75.49
-74.47
-68.31
-57.02
-41.78
-24.56
-7.57
7.44
19.48
28.36
34.41
38.12
39.93
40.20
39.27
37.55
35.56
33.73
32.40
31.71
31.59
31.86
32.33
32.88
33.48
34.19
35.08
36.14
37.24
38.10
38.43
37.99
36.69
34.63
32.06
29.27
26.49
23.84
21.34
18.93
16.48
13.88
11.05
7.99
4.77
1.51
-1.68
-4.69
-7.47
-10.03
-12.44
-14.88
-17.54
-20.61
-24.18
-28.18
-32.36
-36.44
-40.17
-43.47
-46.45
-49.46
-53.01
-57.54
-63.30
-70.02
-76.73
-81.84
-83.48
-80.08
-71.00
-56.84
-39.33
-20.82
-3.56
10.88
21.80
29.31
33.97
36.51
37.56
37.71
37.40
36.98
36.65
36.43
36.20
35.79
35.11
34.28
33.54
33.26
33.72
35.01
36.97
39.18
41.13
42.33
42.47
41.49
39.62
37.23
34.77
32.54
30.64
28.91
27.07
24.83
22.09
18.93
15.57
12.26
9.14
6.25
3.53
0.92
-1.65
-4.19
-6.74
-9.30
-11.87
-14.40
-16.87
-19.34
-21.96
-24.90
-28.29
-32.06
-35.95
-39.64
-42.89
-45.74
-48.49
-51.64
-55.72
-61.02
-67.47
-74.50
-80.94
-85.21
-85.61
-80.83
-70.42
-55.11
-36.67
-17.43
0.41
15.28
26.51
34.19
38.87
41.22
41.86
41.30
39.97
38.29
36.62
35.24
34.26
33.71
33.50
33.54
33.80
34.30
35.10
36.22
37.60
39.02
40.15
40.68
40.37
39.18
37.27
34.93
32.45
30.01
27.62
25.16
22.48
19.49
16.28
13.05
10.03
7.32
4.85
2.39
-0.27
-3.24
-6.40
-9.52
-12.32
-14.67
-16.67
-18.59
-20.83
-23.65
-27.13
-31.08
-35.12
-38.88
-42.13
-44.92
-47.61
-50.73
-54.78
-60.09
-66.53
-73.46
-79.68
-83.60
-83.58
-78.42
-67.81
-52.53
-34.32
-15.44
1.95
16.33
27.04
34.20
38.46
40.54
41.10
40.60
39.39
37.78
36.03
34.40
33.05
32.05
31.40
31.11
31.18
31.70
32.73
34.26
36.14
38.06
39.60
40.38
40.17
38.97
36.98
34.53
31.91
29.29
26.66
23.98
21.18
18.31
15.46
12.73
10.08
7.39
4.49
1.33
-2.03
-5.35
-8.33
-10.77
-12.65
-14.21
-15.85
-17.97
-20.81
-24.29
-28.05
-31.62
-34.64
-37.06
-39.14
-41.42
-44.46
-48.72
-54.27
-60.77
-67.30
-72.45
-74.58
-72.23
-64.59
-51.93
-35.52
-17.44
0.08
15.22
26.93
35.00
39.81
42.02
42.33
41.29
39.35
36.86
34.17
31.57
29.37
27.73
26.74
26.36
26.52
27.13
28.12
29.42
30.92
32.48
33.86
34.82
35.09
34.43
32.78
30.24
27.07
23.69
20.48
17.65
15.19
12.84
10.24
7.16
3.55
-0.37
-4.27
-7.82
-10.83
-13.35
-15.61
-17.94
-20.64
-23.89
-27.63
-31.61
-35.48
-38.94
-41.87
-44.43
-47.00
-50.11
-54.26
-59.75
-66.51
-73.93
-80.82
-85.54
-86.31
-81.73
-71.36
-55.93
-37.27
-17.81
0.16
15.02
26.13
33.67
38.28
40.68
41.48
41.10
39.92
38.32
36.69
35.36
34.50
34.11
34.05
34.21
34.52
35.00
35.70
36.62
37.68
38.74
39.62
40.12
40.06
39.31
37.84
35.71
33.09
30.22
27.31
24.47
21.69
18.91
16.04
13.07
10.08
7.13
4.24
1.39
-1.48
-4.37
-7.22
-9.92
-12.42
-14.83
-17.34
-20.22
-23.64
-27.62
-31.90
-36.09
-39.85
-42.96
-45.57
-48.06
-51.06
-55.17
-60.76
-67.70
-75.17
-81.71
-85.42
-84.50
-77.81
-65.31
-48.24
-28.78
-9.43
7.70
21.29
30.99
37.15
40.46
41.66
41.41
40.27
38.76
37.32
36.23
35.55
35.17
34.88
34.55
34.18
33.96
34.11
34.79
35.99
37.48
38.92
39.93
40.24
39.74
38.49
36.66
34.45
32.02
29.43
26.73
23.95
21.14
18.40
15.74
13.08
10.27
7.18
3.82
0.35
-2.94
-5.79
-8.11
-10.04
-11.86
-13.93
-16.50
-19.62
-23.16
-26.89
-30.54
-33.91
-36.87
-39.47
-41.93
-44.69
-48.25
-52.99
-58.85
-65.14
-70.51
-73.25
-71.74
-65.07
-53.39
-37.92
-20.64
-3.68
11.22
23.05
31.53
36.94
39.78
40.60
39.85
37.91
35.20
32.16
29.22
26.70
24.79
23.51
22.83
22.73
23.23
24.38
26.10
28.19
30.27
31.89
32.68
32.44
31.25
29.29
26.82
24.05
21.02
17.73
14.11
10.16
5.97
1.75
-2.25
-5.80
-8.84
-11.51
-14.13
-17.10
-20.68
-24.91
-29.51
-34.10
-38.29
-41.93
-45.11
-48.19
-51.68
-56.07
-61.69
-68.44
-75.58
-81.68
-84.87
-83.37
-76.12
-63.25
-46.17
-27.13
-8.58
7.56
20.22
29.17
34.81
37.81
38.93
38.88
38.26
37.57
37.07
36.87
36.95
37.20
37.55
37.97
38.44
38.98
39.61
40.37
41.27
42.24
43.14
43.74
43.79
43.14
41.76
39.75
37.27
34.47
31.46
28.29
25.03
21.74
18.47
15.24
12.00
8.69
5.28
1.82
-1.57
-4.73
-7.55
-10.02
-12.29
-14.62
-17.27
-20.46
-24.21
-28.39
-32.69
-36.79
-40.44
-43.61
-46.50
-49.50
-53.08
-57.70
-63.62
-70.72
-78.32
-85.10
-89.22
-88.78
-82.46
-70.08
-52.83
-32.98
-13.19
4.29
18.12
28.02
34.48
38.29
40.18
40.71
40.33
39.44
38.48
37.77
37.52
37.68
38.03
38.34
38.44
38.37
38.35
38.64
39.44
40.71
42.17
43.37
43.85
43.30
41.67
39.20
36.27
33.27
30.42
27.77
25.17
22.49
19.66
16.73
13.84
11.14
8.67
6.39
4.18
1.90
-0.55
-3.20
-5.99
-8.82
-11.55
-14.12
-16.60
-19.20
-22.20
-25.74
-29.77
-33.99
-38.03
-41.54
-44.43
-46.90
-49.36
-52.32
-56.32
-61.70
-68.48
-76.11
-83.35
-88.40
-89.31
-84.56
-73.72
-57.67
-38.38
-18.35
0.11
15.45
27.00
34.89
39.66
41.97
42.48
41.79
40.48
39.04
37.87
37.13
36.78
36.60
36.34
35.95
35.54
35.42
35.83
36.87
38.34
39.87
41.06
41.62
41.48
40.73
39.45
37.73
35.59
33.06
30.24
27.24
24.20
21.18
18.23
15.35
12.57
9.93
7.40
4.94
2.44
-0.16
-2.86
-5.54
-8.07
-10.37
-12.53
-14.77
-17.35
-20.40
-23.85
-27.43
-30.79
-33.67
-36.05
-38.12
-40.29
-43.07
-46.91
-52.04
-58.36
-65.23
-71.46
-75.42
-75.45
-70.37
-59.95
-45.11
-27.65
-9.79
6.53
19.98
30.04
36.78
40.63
42.10
41.69
39.89
37.20
34.13
31.12
28.48
26.36
24.82
23.87
23.54
23.88
24.93
26.66
28.89
31.27
33.37
34.70
34.91
33.87
31.74
28.89
25.82
22.89
20.28
17.86
15.35
12.41
8.85
4.69
0.21
-4.18
-8.14
-11.50
-14.39
-17.11
-20.05
-23.47
-27.44
-31.76
-36.11
-40.18
-43.77
-46.93
-49.93
-53.27
-57.48
-63.00
-69.81
-77.24
-83.85
-87.70
-86.83
-80.05
-67.34
-50.04
-30.41
-10.97
6.23
20.04
30.17
36.96
40.96
42.75
42.86
41.82
40.21
38.62
37.46
36.88
36.75
36.81
36.82
36.73
36.70
37.01
37.88
39.28
41.01
42.64
43.78
44.10
43.48
41.92
39.55
36.57
33.23
29.82
26.58
23.66
21.02
18.50
15.82
12.78
9.29
5.48
1.58
-2.11
-5.40
-8.28
-10.94
-13.67
-16.82
-20.53
-24.76
-29.28
-33.71
-37.74
-41.23
-44.23
-47.00
-49.96
-53.61
-58.42
-64.62
-71.98
-79.58
-85.85
-88.80
-86.64
-78.42
-64.41
-46.17
-26.04
-6.50
10.52
23.95
33.57
39.79
43.27
44.69
44.66
43.72
42.35
40.93
39.71
38.80
38.14
37.63
37.22
36.94
36.94
37.37
38.34
39.75
41.34
42.72
43.49
43.41
42.46
40.83
38.73
36.37
33.80
31.00
27.92
24.56
21.04
17.52
14.14
10.96
7.95
4.97
1.90
-1.30
-4.54
-7.66
-10.51
-13.06
-15.41
-17.85
-20.66
-24.05
-27.97
-32.20
-36.39
-40.24
-43.61
-46.58
-49.41
-52.52
-56.40
-61.45
-67.83
-75.12
-82.20
-87.30
-88.42
-83.93
-73.28
-57.23
-37.75
-17.36
1.55
17.34
29.30
37.49
42.43
44.74
45.10
44.12
42.41
40.53
38.87
37.60
36.71
36.06
35.53
35.12
34.88
34.95
35.41
36.28
37.46
38.78
39.96
40.72
40.80
40.06
38.51
36.34
33.78
31.08
28.34
25.56
22.70
19.74
16.70
13.63
10.55
7.45
4.29
1.07
-2.09
-5.05
-7.66
-9.85
-11.76
-13.63
-15.81
-18.58
-22.09
-26.25
-30.75
-35.13
-38.91
-41.81
-43.88
-45.54
-47.49
-50.47
-55.02
-61.23
-68.60
-75.93
-81.47
-83.27
-79.72
-70.11
-55.01
-36.23
-16.32
2.19
17.47
28.76
36.18
40.43
42.25
42.28
40.97
38.78
36.22
33.80
31.89
30.61
29.80
29.23
28.69
28.20
27.93
28.14
28.98
30.42
32.20
33.90
35.05
35.29
34.46
32.61
30.02
27.07
24.18
21.58
19.30
17.12
14.68
11.71
8.14
4.17
0.20
-3.40
-6.38
-8.81
-10.92
-13.06
-15.50
-18.36
-21.56
-24.91
-28.21
-31.25
-33.95
-36.36
-38.66
-41.25
-44.59
-49.12
-54.95
-61.59
-67.87
-72.03
-72.22
-67.14
-56.53
-41.47
-23.98
-6.47
9.05
21.39
30.29
36.13
39.50
40.94
40.80
39.37
37.01
34.11
31.12
28.39
26.13
24.44
23.32
22.78
22.82
23.45
24.64
26.28
28.16
29.97
31.28
31.72
31.06
29.29
26.74
23.83
21.00
18.43
16.04
13.55
10.67
7.26
3.40
-0.61
-4.42
-7.76
-10.59
-13.04
-15.44
-18.09
-21.26
-24.98
-29.10
-33.32
-37.27
-40.69
-43.50
-45.95
-48.54
-51.95
-56.71
-62.92
-69.93
-76.26
-79.93
-79.05
-72.47
-60.29
-43.88
-25.44
-7.33
8.58
21.24
30.41
36.39
39.72
40.98
40.73
39.55
37.97
36.41
35.11
34.09
33.24
32.42
31.61
30.91
30.54
30.72
31.54
32.90
34.54
36.06
37.08
37.33
36.70
35.24
33.13
30.62
27.91
25.14
22.32
19.40
16.32
13.09
9.76
6.43
3.15
-0.03
-3.11
-5.99
-8.58
-10.82
-12.83
-14.93
-17.54
-20.93
-25.09
-29.66
-34.08
-37.89
-40.93
-43.39
-45.70
-48.35
-51.85
-56.58
-62.71
-69.92
-77.22
-82.90
-84.90
-81.47
-71.90
-56.88
-38.39
-18.96
-1.00
13.85
24.96
32.43
36.79
38.73
38.89
37.89
36.31
34.66
33.31
32.44
31.99
31.77
31.57
31.27
30.94
30.83
31.23
32.36
34.23
36.54
38.79
40.44
41.06
40.49
38.88
36.57
33.92
31.19
28.48
25.74
22.91
20.01
17.12
14.36
11.72
9.10
6.33
3.29
0.03
-3.23
-6.24
-8.83
-11.01
-12.96
-14.96
-17.25
-20.00
-23.32
-27.13
-31.27
-35.44
-39.33
-42.70
-45.55
-48.19
-51.17
-55.10
-60.39
-67.01
-74.30
-80.95
-85.21
-85.28
-79.85
-68.58
-52.37
-33.16
-13.42
4.56
19.23
29.94
36.86
40.59
41.87
41.37
39.68
37.34
34.89
32.77
31.28
30.52
30.37
30.60
30.97
31.38
31.86
32.58
33.67
35.17
36.86
38.41
39.36
39.37
38.33
36.30
33.54
30.40
27.18
24.06
21.08
18.12
15.01
11.59
7.85
3.92
0.06
-3.49
-6.63
-9.44
-12.20
-15.23
-18.76
-22.78
-27.07
-31.23
-34.89
-37.87
-40.34
-42.77
-45.80
-50.06
-55.85
-62.99
-70.66
-77.43
-81.52
-81.18
-75.25
-63.60
-47.28
-28.32
-9.15
8.06
21.98
32.19
39.01
43.13
45.17
45.60
44.80
43.11
41.00
38.94
37.28
36.18
35.59
35.38
35.43
35.72
36.34
37.35
38.73
40.31
41.79
42.79
42.99
42.18
40.33
37.59
34.22
30.60
27.02
23.74
20.78
18.03
15.28
12.25
8.77
4.82
0.58
-3.63
-7.45
-10.67
-13.32
-15.70
-18.23
-21.33
-25.14
-29.51
-34.01
-38.16
-41.64
-44.45
-46.92
-49.58
-53.06
-57.82
-64.07
-71.49
-79.15
-85.47
-88.48
-86.38
-78.11
-63.87
-45.18
-24.44
-4.29
13.16
26.74
36.22
42.10
45.13
46.10
45.64
44.29
42.56
40.86
39.50
38.61
38.11
37.84
37.60
37.35
37.19
37.32
37.94
39.08
40.59
42.13
43.26
43.61
42.96
41.28
38.77
35.72
32.44
29.12
25.84
22.61
19.41
16.24
13.14
10.13
7.15
4.09
0.85
-2.60
-6.17
-9.64
-12.80
-15.57
-18.05
-20.50
-23.25
-26.51
-30.28
-34.33
-38.33
-41.96
-45.09
-47.85
-50.59
-53.78
-57.88
-63.20
-69.70
-76.86
-83.52
-87.97
-88.31
-82.99
-71.49
-54.61
-34.37
-13.41
5.76
21.44
32.96
40.53
44.82
46.59
46.53
45.22
43.23
41.08
39.24
37.96
37.25
36.93
36.76
36.60
36.47
36.52
36.95
37.85
39.15
40.62
41.88
42.58
42.44
41.36
39.41
36.81
33.82
30.67
27.50
24.33
21.17
18.03
14.95
12.02
9.24
6.54
3.76
0.76
-2.43
-5.61
-8.48
-10.85
-12.74
-14.47
-16.48
-19.16
-22.62
-26.70
-31.02
-35.16
-38.89
-42.13
-45.04
-47.89
-51.06
-54.97
-59.99
-66.17
-73.01
-79.24
-83.03
-82.39
-75.98
-63.59
-46.43
-26.76
-7.23
9.96
23.55
33.26
39.55
43.15
44.73
44.76
43.60
41.64
39.31
37.05
35.20
33.92
33.15
32.74
32.50
32.38
32.44
32.80
33.55
34.63
35.82
36.81
37.24
36.85
35.56
33.49
30.86
27.94
24.94
22.02
19.26
16.70
14.32
12.06
9.76
7.23
4.32
0.98
-2.65
-6.30
-9.63
-12.42
-14.65
-16.52
-18.41
-20.68
-23.58
-27.05
-30.87
-34.65
-38.08
-41.01
-43.54
-45.96
-48.70
-52.22
-56.87
-62.65
-69.03
-74.83
-78.32
-77.65
-71.50
-59.62
-43.08
-24.06
-5.13
11.44
24.29
33.07
38.22
40.51
40.76
39.64
37.67
35.31
32.98
31.00
29.55
28.61
27.99
27.47
26.90
26.35
26.04
26.26
27.18
28.71
30.45
31.83
32.31
31.65
29.89
27.40
24.60
21.78
19.05
16.30
13.39
10.22
6.87
3.50
0.37
-2.34
-4.59
-6.54
-8.47
-10.74
-13.56
-16.92
-20.59
-24.17
-27.31
-29.85
-31.92
-33.86
-36.14
-39.25
-43.53
-49.02
-55.23
-61.06
-64.92
-65.10
-60.34
-50.37
-36.15
-19.59
-2.99
11.66
23.15
31.19
36.11
38.50
38.96
37.94
35.86
33.17
30.29
27.62
25.42
23.77
22.62
21.90
21.58
21.68
22.23
23.20
24.46
25.80
26.92
27.55
27.46
26.54
24.79
22.31
19.29
15.94
12.43
8.94
5.55
2.35
-0.67
-3.56
-6.46
-9.59
-13.13
-17.12
-21.44
-25.82
-29.91
-33.47
-36.44
-39.00
-41.50
-44.38
-48.10
-53.01
-59.10
-65.82
-71.95
-75.71
-75.28
-69.43
-58.02
-42.24
-24.22
-6.40
9.19
21.38
29.91
35.17
37.84
38.63
38.15
36.95
35.53
34.27
33.38
32.89
32.64
32.39
31.95
31.25
30.39
29.66
29.36
29.70
30.67
31.97
33.13
33.61
33.08
31.49
29.07
26.20
23.22
20.32
17.46
14.50
11.31
7.86
4.26
0.76
-2.40
-5.05
-7.28
-9.34
-11.63
-14.48
-18.02
-22.06
-26.19
-30.00
-33.25
-35.97
-38.46
-41.18
-44.58
-49.03
-54.60
-60.92
-67.04
-71.45
-72.44
-68.59
-59.39
-45.56
-28.88
-11.68
3.91
16.49
25.59
31.49
34.82
36.29
36.51
35.92
34.86
33.62
32.42
31.38
30.55
29.89
29.34
28.86
28.47
28.32
28.56
29.31
30.55
32.04
33.41
34.26
34.31
33.53
32.06
30.15
28.01
25.76
23.41
20.95
18.42
15.89
13.41
11.01
8.59
6.03
3.29
0.41
-2.43
-5.01
-7.20
-9.06
-10.84
-12.86
-15.39
-18.48
-21.94
-25.42
-28.56
-31.15
-33.23
-35.07
-37.16
-39.99
-43.96
-49.16
-55.22
-61.27
-66.02
-68.03
-66.06
-59.57
-48.85
-35.04
-19.81
-4.94
8.11
18.47
25.81
30.27
32.25
32.21
30.68
28.18
25.24
22.38
20.02
18.42
17.67
17.69
18.28
19.25
20.40
21.63
22.87
24.09
25.21
26.09
26.52
26.31
25.33
23.63
21.37
18.80
16.13
13.42
10.64
7.70
4.61
1.48
-1.49
-4.19
-6.66
-9.12
-11.85
-15.07
-18.84
-22.98
-27.20
-31.19
-34.75
-37.79
-40.39
-42.84
-45.59
-49.21
-54.12
-60.33
-67.08
-72.90
-75.90
-74.33
-67.31
-55.17
-39.40
-22.18
-5.74
8.25
18.95
26.29
30.73
32.95
33.69
33.62
33.28
33.05
33.13
33.48
33.95
34.28
34.30
33.99
33.45
32.96
32.78
33.10
33.97
35.22
36.55
37.58
37.96
37.50
36.21
34.25
31.83
29.16
26.37
23.54
20.68
17.79
14.86
11.86
8.74
5.51
2.22
-0.99
-3.97
-6.65
-9.14
-11.65
-14.49
-17.88
-21.86
-26.23
-30.66
-34.77
-38.33
-41.32
-44.00
-46.85
-50.49
-55.39
-61.71
-68.99
-76.08
-81.26
-82.64
-78.79
-69.22
-54.68
-36.99
-18.47
-1.31
12.98
23.73
31.05
35.44
37.56
38.04
37.47
36.39
35.29
34.53
34.26
34.38
34.69
34.99
35.20
35.39
35.75
36.48
37.64
39.14
40.71
42.01
42.72
42.60
41.60
39.81
37.43
34.69
31.86
29.05
26.32
23.61
20.82
17.88
14.81
11.72
8.70
5.82
3.07
0.35
-2.35
-5.02
-7.54
-9.85
-12.06
-14.39
-17.18
-20.61
-24.64
-28.91
-32.94
-36.31
-38.93
-41.05
-43.23
-46.13
-50.27
-55.89
-62.73
-69.97
-76.17
-79.55
-78.41
-71.70
-59.46
-42.95
-24.34
-6.05
9.88
22.30
30.97
36.27
38.86
39.42
38.50
36.66
34.40
32.22
30.45
29.25
28.57
28.25
28.13
28.17
28.45
29.13
30.33
32.04
34.04
35.89
37.05
37.10
35.92
33.69
30.87
27.95
25.22
22.67
20.09
17.23
13.98
10.39
6.68
3.04
-0.41
-3.67
-6.79
-9.86
-12.96
-16.18
-19.55
-23.10
-26.75
-30.37
-33.84
-37.05
-40.05
-43.08
-46.58
-51.01
-56.67
-63.34
-70.05
-75.17
-76.74
-73.17
-63.86
-49.48
-31.84
-13.35
3.77
17.95
28.51
35.53
39.49
41.04
40.84
39.55
37.76
36.00
34.65
33.86
33.56
33.55
33.60
33.59
33.52
33.51
33.72
34.23
35.03
35.98
36.84
37.32
37.14
36.12
34.22
31.56
28.44
25.21
22.17
19.45
17.00
14.55
11.82
8.61
4.94
1.04
-2.72
-6.03
-8.71
-10.87
-12.83
-15.00
-17.71
-21.03
-24.79
-28.65
-32.27
-35.45
-38.23
-40.82
-43.53
-46.74
-50.80
-56.00
-62.31
-69.24
-75.61
-79.67
-79.52
-73.82
-62.37
-46.29
-27.78
-9.35
6.94
19.88
29.23
35.38
38.93
40.44
40.38
39.23
37.52
35.77
34.42
33.64
33.35
33.32
33.32
33.27
33.27
33.54
34.27
35.43
36.80
38.00
38.69
38.71
38.13
37.10
35.78
34.19
32.27
29.93
27.16
24.04
20.73
17.39
14.12
11.01
8.12
5.45
2.96
0.57
-1.79
-4.19
-6.59
-8.95
-11.26
-13.61
-16.19
-19.20
-22.72
-26.59
-30.49
-34.02
-36.90
-39.15
-41.06
-43.19
-46.18
-50.52
-56.27
-62.95
-69.42
-74.05
-75.15
-71.43
-62.46
-48.92
-32.40
-14.99
1.30
15.03
25.47
32.61
36.80
38.55
38.39
36.84
34.44
31.78
29.36
27.53
26.37
25.75
25.46
25.31
25.29
25.53
26.22
27.41
28.96
30.54
31.71
32.11
31.55
30.07
27.94
25.51
23.08
20.77
18.49
16.03
13.17
9.85
6.25
2.70
-0.50
-3.24
-5.67
-8.12
-10.94
-14.30
-18.13
-22.17
-26.03
-29.42
-32.18
-34.43
-36.51
-38.90
-42.13
-46.53
-52.03
-58.00
-63.25
-66.23
-65.50
-60.14
-50.16
-36.49
-20.82
-5.07
9.07
20.50
28.77
34.02
36.70
37.41
36.77
35.31
33.47
31.57
29.81
28.25
26.90
25.79
25.01
24.69
24.95
25.83
27.26
28.99
30.68
31.92
32.36
31.81
30.33
28.19
25.77
23.41
21.24
19.15
16.88
14.14
10.82
7.04
3.14
-0.55
-3.79
-6.53
-8.97
-11.41
-14.14
-17.37
-21.13
-25.26
-29.48
-33.42
-36.81
-39.55
-41.82
-44.10
-47.07
-51.34
-57.16
-64.07
-70.77
-75.38
-75.94
-71.08
-60.58
-45.50
-27.88
-10.13
5.69
18.31
27.31
33.00
36.01
37.04
36.71
35.54
33.98
32.39
31.01
29.96
29.18
28.59
28.10
27.70
27.51
27.68
28.37
29.57
31.13
32.72
33.96
34.47
34.01
32.50
30.09
27.11
23.93
20.89
18.12
15.49
12.73
9.53
5.79
1.64
-2.53
-6.32
-9.47
-12.04
-14.35
-16.87
-19.96
-23.74
-28.03
-32.48
-36.66
-40.27
-43.23
-45.74
-48.25
-51.36
-55.61
-61.20
-67.73
-74.07
-78.50
-79.14
-74.57
-64.34
-49.26
-31.24
-12.69
4.12
17.64
27.26
33.18
36.07
36.76
36.06
34.63
33.04
31.74
30.94
30.63
30.55
30.36
29.84
29.00
28.13
27.65
27.92
29.06
30.90
32.98
34.73
35.65
35.39
33.91
31.46
28.48
25.45
22.73
20.37
18.18
15.82
12.97
9.50
5.57
1.48
-2.39
-5.80
-8.72
-11.37
-14.07
-17.10
-20.51
-24.15
-27.70
-30.84
-33.43
-35.60
-37.73
-40.32
-43.88
-48.63
-54.44
-60.66
-66.11
-69.26
-68.59
-63.06
-52.54
-37.97
-21.16
-4.29
10.73
22.71
31.29
36.71
39.52
40.29
39.45
37.39
34.51
31.30
28.19
25.57
23.66
22.51
22.10
22.37
23.26
24.67
26.45
28.36
30.08
31.31
31.80
31.47
30.35
28.56
26.25
23.48
20.29
16.69
12.73
8.57
4.40
0.46
-3.13
-6.33
-9.26
-12.15
-15.27
-18.84
-22.91
-27.33
-31.78
-35.89
-39.38
-42.25
-44.78
-47.54
-51.21
-56.28
-62.82
-70.26
-77.31
-82.11
-82.78
-77.91
-67.18
-51.48
-32.78
-13.50
4.15
18.66
29.42
36.58
40.70
42.49
42.62
41.65
40.08
38.37
36.85
35.75
35.09
34.78
34.64
34.56
34.53
34.69
35.22
36.26
37.75
39.42
40.84
41.52
41.11
39.48
36.74
33.27
29.59
26.17
23.27
20.85
18.56
15.94
12.63
8.58
4.06
-0.39
-4.30
-7.45
-9.95
-12.21
-14.71
-17.81
-21.63
-25.98
-30.50
-34.78
-38.52
-41.59
-44.17
-46.64
-49.58
-53.56
-58.93
-65.54
-72.54
-78.40
-81.21
-79.25
-71.57
-58.42
-41.25
-22.27
-3.82
12.25
24.94
34.02
39.82
42.87
43.76
43.05
41.29
39.08
36.95
35.30
34.28
33.78
33.58
33.42
33.22
33.06
33.15
33.72
34.84
36.37
37.97
39.21
39.71
39.22
37.70
35.26
32.20
28.85
25.56
22.54
19.84
17.31
14.69
11.70
8.25
4.44
0.58
-2.97
-6.00
-8.55
-10.90
-13.44
-16.43
-19.92
-23.71
-27.46
-30.88
-33.82
-36.29
-38.48
-40.67
-43.28
-46.76
-51.47
-57.36
-63.73
-69.12
-71.66
-69.59
-62.01
-49.25
-32.91
-15.29
1.32
15.29
25.90
33.24
37.82
40.18
40.72
39.71
37.41
34.24
30.70
27.37
24.69
22.94
22.14
22.14
22.68
23.51
24.43
25.35
26.22
27.00
27.63
27.93
27.70
26.68
24.75
21.92
18.42
14.61
10.88
7.45
4.28
1.09
-2.51
-6.79
-11.75
-17.07
-22.20
-26.70
-30.35
-33.32
-35.99
-38.85
-42.27
-46.50
-51.67
-57.69
-64.14
-70.11
-74.20
-74.81
-70.65
-61.27
-47.32
-30.47
-12.89
3.41
17.03
27.33
34.38
38.57
40.44
40.57
39.48
37.73
35.81
34.11
32.86
32.06
31.59
31.27
31.01
30.88
31.00
31.50
32.40
33.48
34.45
34.99
34.89
34.10
32.65
30.60
27.97
24.78
21.09
17.07
12.96
9.01
5.37
2.03
-1.13
-4.29
-7.66
-11.35
-15.39
-19.73
-24.20
-28.58
-32.66
-36.28
-39.49
-42.54
-45.88
-50.03
-55.36
-61.84
-68.81
-74.92
-78.39
-77.45
-71.01
-59.07
-42.90
-24.66
-6.77
8.81
21.02
29.72
35.40
38.75
40.36
40.64
39.90
38.51
36.88
35.47
34.55
34.18
34.18
34.29
34.29
34.15
34.04
34.18
34.78
35.82
37.06
38.09
38.41
37.65
35.74
32.89
29.57
26.33
23.55
21.28
19.31
17.17
14.47
10.99
6.80
2.23
-2.27
-6.28
-9.57
-12.18
-14.41
-16.70
-19.43
-22.81
-26.75
-30.94
-34.99
-38.63
-41.81
-44.80
-48.03
-52.02
-57.14
-63.41
-70.33
-76.78
-81.15
-81.73
-77.26
-67.33
-52.71
-35.13
-16.80
0.22
14.49
25.38
32.95
37.64
40.01
40.55
39.70
37.93
35.74
33.67
32.12
31.28
31.08
31.25
31.49
31.62
31.66
31.82
32.35
33.34
34.65
35.89
36.57
36.34
35.04
32.87
30.19
27.45
24.98
22.84
20.85
18.66
15.93
12.50
8.50
4.31
0.37
-2.96
-5.63
-7.86
-10.05
-12.61
-15.76
-19.50
-23.58
-27.65
-31.36
-34.53
-37.15
-39.48
-41.97
-45.14
-49.42
-54.93
-61.26
-67.39
-71.80
-72.87
-69.29
-60.58
-47.31
-30.98
-13.66
2.63
16.39
26.88
34.08
38.41
40.43
40.64
39.44
37.21
34.37
31.36
28.59
26.33
24.72
23.74
23.33
23.48
24.20
25.48
27.19
29.11
30.85
32.04
32.37
31.72
30.14
27.80
24.90
21.62
18.09
14.42
10.71
7.06
3.55
0.23
-2.92
-5.98
-9.10
-12.45
-16.18
-20.32
-24.76
-29.20
-33.29
-36.78
-39.66
-42.26
-45.14
-48.95
-54.12
-60.68
-68.08
-75.18
-80.38
-81.94
-78.49
-69.45
-55.38
-37.86
-19.11
-1.36
13.72
25.23
33.05
37.59
39.53
39.62
38.60
37.16
35.86
35.03
34.76
34.84
34.98
34.88
34.45
33.83
33.33
33.30
33.94
35.20
36.77
38.15
38.84
38.50
37.08
34.77
31.92
28.92
26.01
23.30
20.65
17.86
14.69
11.05
7.04
2.92
-0.96
-4.37
-7.24
-9.81
-12.44
-15.53
-19.29
-23.65
-28.30
-32.84
-36.92
-40.36
-43.27
-46.01
-49.12
-53.18
-58.63
-65.44
-72.93
-79.66
-83.73
-83.29
-77.18
-65.39
-49.18
-30.67
-12.19
4.33
17.76
27.78
34.59
38.68
40.58
40.82
39.97
38.58
37.16
36.00
35.21
34.69
34.32
34.00
33.75
33.69
33.90
34.43
35.24
36.23
37.26
38.12
38.56
38.33
37.24
35.24
32.51
29.35
26.14
23.17
20.54
18.18
15.84
13.22
10.08
6.37
2.30
-1.74
-5.27
-7.98
-9.90
-11.37
-12.96
-15.18
-18.27
-22.10
-26.28
-30.34
-33.92
-36.91
-39.43
-41.79
-44.45
-47.88
-52.46
-58.21
-64.61
-70.55
-74.42
-74.56
-69.75
-59.70
-45.19
-27.96
-10.17
6.13
19.50
29.29
35.60
38.93
39.93
39.19
37.24
34.57
31.65
28.95
26.83
25.46
24.81
24.75
25.09
25.72
26.61
27.76
29.10
30.48
31.65
32.34
32.33
31.55
30.00
27.79
25.03
21.85
18.36
14.67
10.89
7.13
3.47
-0.06
-3.48
-6.85
-10.29
-13.92
-17.78
-21.87
-26.03
-30.05
-33.72
-36.99
-39.95
-42.98
-46.54
-51.14
-56.99
-63.83
-70.78
-76.36
-78.81
-76.61
-68.98
-56.29
-39.96
-22.10
-4.92
9.87
21.38
29.49
34.63
37.45
38.59
38.56
37.81
36.75
35.76
35.11
34.88
34.96
35.09
35.01
34.65
34.17
33.90
34.13
35.01
36.37
37.83
38.92
39.22
38.51
36.77
34.21
31.16
28.01
25.03
22.37
19.90
17.34
14.38
10.85
6.84
2.70
-1.12
-4.34
-6.93
-9.23
-11.74
-14.91
-18.94
-23.65
-28.60
-33.28
-37.29
-40.51
-43.11
-45.53
-48.32
-52.02
-57.03
-63.35
-70.44
-77.05
-81.46
-81.86
-76.96
-66.45
-51.28
-33.35
-14.97
1.73
15.35
25.38
32.01
35.88
37.74
38.29
38.08
37.49
36.80
36.18
35.72
35.44
35.30
35.19
35.05
34.89
34.82
35.01
35.62
36.66
37.96
39.17
39.86
39.68
38.47
36.31
33.51
30.43
27.38
24.54
21.93
19.45
16.95
14.30
11.41
8.27
4.92
1.49
-1.85
-4.92
-7.59
-9.89
-12.01
-14.27
-17.00
-20.38
-24.34
-28.56
-32.60
-36.06
-38.79
-40.95
-43.00
-45.56
-49.27
-54.46
-60.93
-67.79
-73.49
-76.18
-74.26
-66.93
-54.57
-38.69
-21.44
-4.95
9.23
20.35
28.36
33.55
36.32
37.02
36.03
33.83
31.04
28.28
26.08
24.68
24.05
23.99
24.33
24.98
25.94
27.24
28.83
30.54
32.10
33.22
33.65
33.27
32.06
30.12
27.58
24.63
21.42
18.11
14.79
11.49
8.23
4.98
1.76
-1.45
-4.68
-8.02
-11.58
-15.39
-19.42
-23.51
-27.41
-30.95
-34.05
-36.85
-39.69
-43.02
-47.25
-52.59
-58.81
-65.11
-70.14
-72.28
-70.13
-62.98
-51.16
-36.01
-19.49
-3.64
10.01
20.66
28.22
33.07
35.77
36.82
36.61
35.53
34.00
32.44
31.29
30.77
30.92
31.54
32.33
33.05
33.61
34.09
34.66
35.40
36.27
37.02
37.35
36.99
35.85
34.01
31.64
29.00
26.25
23.47
20.60
17.58
14.29
10.74
7.05
3.44
0.17
-2.58
-4.81
-6.73
-8.73
-11.23
-14.53
-18.67
-23.39
-28.18
-32.50
-35.95
-38.51
-40.57
-42.80
-45.97
-50.62
-56.79
-63.83
-70.43
-74.84
-75.36
-70.84
-61.11
-47.12
-30.68
-13.96
1.11
13.24
21.97
27.52
30.56
31.85
32.13
31.96
31.74
31.67
31.74
31.85
31.86
31.66
31.30
30.94
30.82
31.13
31.94
33.18
34.64
36.02
37.07
37.59
37.46
36.65
35.15
33.05
30.46
27.55
24.52
21.57
18.80
16.25
13.83
11.41
8.89
6.20
3.38
0.55
-2.14
-4.57
-6.67
-8.45
-10.04
-11.64
-13.52
-15.89
-18.83
-22.27
-25.95
-29.57
-32.90
-35.91
-38.85
-42.17
-46.37
-51.75
-58.20
-65.04
-71.00
-74.44
-73.82
-68.19
-57.59
-43.13
-26.75
-10.58
3.62
14.86
22.93
28.18
31.13
32.25
31.89
30.37
28.13
25.70
23.58
22.11
21.37
21.21
21.39
21.73
22.22
22.98
24.17
25.78
27.65
29.41
30.64
31.03
30.43
28.94
26.81
24.32
21.71
19.10
16.43
13.61
10.56
7.31
4.01
0.87
-1.97
-4.52
-6.98
-9.66
-12.79
-16.46
-20.45
-24.43
-28.01
-31.01
-33.51
-35.84
-38.51
-42.05
-46.80
-52.71
-59.21
-65.18
-69.10
-69.45
-65.20
-56.20
-43.31
-28.18
-12.75
1.27
12.76
21.29
26.92
30.08
31.29
31.12
30.11
28.76
27.49
26.57
26.09
26.03
26.28
26.69
27.15
27.58
28.01
28.50
29.16
30.01
30.94
31.68
31.88
31.24
29.68
27.39
24.72
22.06
19.61
17.32
14.95
12.23
9.03
5.49
1.94
-1.30
-4.08
-6.49
-8.86
-11.58
-14.87
-18.75
-23.01
-27.32
-31.34
-34.86
-37.84
-40.46
-43.08
-46.18
-50.21
-55.41
-61.58
-67.90
-72.98
-75.16
-72.99
-65.77
-53.89
-38.76
-22.39
-6.84
6.39
16.56
23.68
28.22
30.83
32.09
32.47
32.34
32.01
31.68
31.48
31.43
31.45
31.41
31.25
30.98
30.75
30.79
31.28
32.27
33.63
35.01
35.98
36.17
35.35
33.57
31.04
28.06
24.89
21.69
18.46
15.15
11.75
8.28
4.85
1.60
-1.38
-4.12
-6.75
-9.54
-12.74
-16.47
-20.67
-25.02
-29.12
-32.64
-35.49
-37.89
-40.31
-43.34
-47.48
-52.92
-59.39
-66.05
-71.56
-74.30
-72.80
-66.27
-54.94
-40.09
-23.69
-7.82
5.93
16.77
24.58
29.71
32.67
33.92
33.94
33.18
32.12
31.17
30.51
30.14
29.89
29.61
29.27
28.99
29.00
29.50
30.51
31.85
33.18
34.10
34.34
33.78
32.48
30.63
28.35
25.70
22.66
19.26
15.64
12.03
8.62
5.51
2.57
-0.46
-3.83
-7.67
-11.91
-16.33
-20.66
-24.70
-28.35
-31.63
-34.67
-37.72
-41.09
-45.15
-50.13
-56.00
-62.22
-67.69
-70.92
-70.39
-65.06
-54.78
-40.54
-24.13
-7.71
6.86
18.44
26.72
32.02
34.97
36.18
36.14
35.25
33.86
32.35
31.01
30.03
29.42
29.06
28.83
28.64
28.54
28.66
29.17
30.14
31.48
32.94
34.13
34.65
34.24
32.81
30.48
27.48
24.08
20.44
16.73
13.03
9.47
6.15
3.14
0.35
-2.41
-5.42
-8.88
-12.84
-17.13
-21.44
-25.40
-28.75
-31.47
-33.81
-36.24
-39.34
-43.55
-48.99
-55.27
-61.37
-65.80
-66.95
-63.55
-55.15
-42.36
-26.72
-10.27
5.00
17.66
27.03
33.13
36.45
37.62
37.27
35.93
34.01
31.87
29.77
27.91
26.39
25.29
24.66
24.54
25.00
26.03
27.57
29.46
31.41
33.06
34.03
34.02
32.90
30.77
27.92
24.69
21.34
17.99
14.62
11.15
7.59
4.03
0.62
-2.54
-5.52
-8.53
-11.83
-15.57
-19.73
-24.09
-28.37
-32.31
-35.74
-38.71
-41.38
-44.11
-47.40
-51.72
-57.35
-64.07
-71.02
-76.65
-79.10
-76.74
-68.76
-55.59
-38.79
-20.65
-3.51
10.92
21.87
29.40
34.06
36.58
37.50
37.29
36.35
35.09
33.97
33.30
33.19
33.52
34.00
34.41
34.68
34.94
35.38
36.18
37.37
38.78
40.09
40.95
41.00
40.06
38.10
35.29
31.95
28.45
25.13
22.15
19.52
17.08
14.58
11.85
8.79
5.53
2.23
-0.90
-3.75
-6.35
-8.86
-11.47
-14.34
-17.53
-21.00
-24.57
-28.01
-31.09
-33.70
-35.89
-37.96
-40.43
-43.82
-48.47
-54.28
-60.53
-65.97
-69.03
-68.23
-62.70
-52.48
-38.56
-22.71
-6.93
7.07
18.24
26.28
31.44
34.23
35.16
34.62
32.92
30.40
27.48
24.67
22.41
21.01
20.52
20.78
21.52
22.47
23.47
24.47
25.56
26.77
27.97
28.84
28.93
27.91
25.71
22.58
19.01
15.43
12.14
9.10
6.16
3.08
-0.28
-3.96
-7.92
-12.05
-16.22
-20.24
-23.89
-27.05
-29.75
-32.27
-35.11
-38.84
-43.84
-50.09
-56.92
-63.04
-66.79
-66.62
-61.58
-51.75
-38.28
-23.06
-8.10
4.99
15.35
22.87
27.92
31.03
32.70
33.30
33.16
32.55
31.74
30.94
30.26
29.70
29.22
28.76
28.30
27.93
27.82
28.17
29.10
30.55
32.21
33.57
34.13
33.55
31.81
29.19
26.16
23.18
20.56
18.37
16.43
14.41
11.98
8.96
5.43
1.70
-1.87
-5.00
-7.70
-10.22
-12.88
-15.90
-19.28
-22.84
-26.29
-29.47
-32.39
-35.17
-38.02
-41.18
-44.90
-49.43
-54.86
-60.88
-66.65
-70.81
-71.80
-68.39
-60.10
-47.54
-32.21
-16.11
-1.16
11.26
20.58
26.89
30.70
32.69
33.44
33.37
32.73
31.73
30.54
29.36
28.39
27.75
27.48
27.55
27.83
28.25
28.81
29.55
30.52
31.65
32.73
33.42
33.42
32.57
30.98
28.91
26.70
24.54
22.44
20.26
17.85
15.17
12.34
9.52
6.87
4.37
1.94
-0.53
-3.08
-5.60
-7.94
-10.00
-11.81
-13.54
-15.46
-17.84
-20.80
-24.25
-27.96
-31.56
-34.78
-37.49
-39.82
-42.10
-44.75
-48.20
-52.74
-58.39
-64.71
-70.75
-75.06
-75.99
-72.21
-63.26
-49.85
-33.72
-17.13
-2.13
10.00
18.86
24.80
28.40
30.27
30.80
30.31
29.10
27.51
25.83
24.30
23.01
21.99
21.26
20.84
20.82
21.19
21.95
22.99
24.21
25.49
26.63
27.42
27.59
26.93
25.40
23.19
20.67
18.25
16.21
14.56
13.03
11.25
8.90
5.87
2.35
-1.31
-4.69
-7.54
-9.80
-11.66
-13.44
-15.46
-17.90
-20.73
-23.79
-26.80
-29.55
-31.95
-34.06
-36.19
-38.71
-42.02
-46.36
-51.65
-57.32
-62.27
-65.11
-64.42
-59.29
-49.66
-36.44
-21.27
-6.08
7.47
18.37
26.34
31.60
34.63
35.88
35.74
34.54
32.64
30.43
28.29
26.49
25.22
24.51
24.34
24.67
25.40
26.45
27.74
29.21
30.76
32.24
33.38
33.86
33.41
31.94
29.60
26.78
23.95
21.42
19.25
17.23
14.98
12.18
8.69
4.67
0.50
-3.40
-6.71
-9.37
-11.61
-13.83
-16.46
-19.74
-23.62
-27.82
-31.96
-35.71
-38.97
-41.87
-44.76
-48.07
-52.17
-57.29
-63.28
-69.56
-74.97
-77.98
-77.00
-70.97
-59.78
-44.46
-26.98
-9.61
5.71
17.85
26.57
32.28
35.63
37.24
37.53
36.84
35.54
34.07
32.85
32.13
31.94
32.07
32.26
32.35
32.37
32.56
33.17
34.35
35.95
37.62
38.85
39.21
38.50
36.81
34.41
31.66
28.83
26.06
23.37
20.72
18.05
15.38
12.68
9.91
7.01
3.97
0.86
-2.16
-4.91
-7.37
-9.66
-12.08
-14.94
-18.38
-22.32
-26.44
-30.37
-33.78
-36.61
-39.02
-41.42
-44.30
-48.14
-53.20
-59.40
-66.08
-72.06
-75.79
-75.73
-70.85
-60.99
-47.00
-30.51
-13.50
2.19
15.29
25.21
31.98
36.03
37.92
38.22
37.40
35.87
34.02
32.21
30.71
29.67
29.07
28.81
28.79
28.99
29.49
30.39
31.68
33.16
34.48
35.23
35.10
33.99
32.06
29.69
27.27
25.07
23.10
21.16
18.94
16.20
12.90
9.26
5.59
2.20
-0.79
-3.44
-5.95
-8.53
-11.36
-14.49
-17.91
-21.52
-25.13
-28.57
-31.68
-34.46
-37.12
-40.00
-43.51
-47.92
-53.16
-58.65
-63.33
-65.79
-64.64
-58.97
-48.73
-34.84
-18.99
-3.11
11.14
22.72
31.29
36.99
40.20
41.31
40.71
38.81
36.10
33.12
30.33
28.05
26.40
25.35
24.82
24.75
25.16
26.08
27.47
29.13
30.76
31.98
32.44
32.00
30.74
28.88
26.70
24.37
21.90
19.18
16.06
12.47
8.51
4.41
0.48
-3.00
-5.93
-8.46
-10.95
-13.80
-17.29
-21.41
-25.87
-30.23
-34.10
-37.32
-40.03
-42.61
-45.52
-49.23
-54.03
-59.87
-66.22
-71.98
-75.61
-75.46
-70.31
-59.91
-45.12
-27.75
-10.01
6.10
19.30
29.06
35.57
39.33
40.95
40.97
39.87
38.10
36.11
34.31
32.98
32.21
31.92
31.95
32.15
32.45
32.90
33.58
34.54
35.69
36.84
37.71
38.04
37.64
36.45
34.53
32.03
29.19
26.24
23.36
20.63
17.94
15.14
12.04
8.59
4.90
1.25
-2.03
-4.75
-6.92
-8.80
-10.80
-13.31
-16.55
-20.46
-24.77
-29.05
-32.93
-36.18
-38.83
-41.12
-43.43
-46.22
-49.91
-54.75
-60.68
-67.17
-73.10
-76.88
-76.84
-71.78
-61.44
-46.76
-29.62
-12.26
3.38
16.15
25.73
32.40
36.66
38.98
39.72
39.19
37.79
35.98
34.21
32.80
31.85
31.27
30.95
30.83
30.97
31.52
32.54
33.96
35.51
36.84
37.62
37.71
37.06
35.77
33.94
31.68
29.14
26.49
23.88
21.43
19.12
16.85
14.48
11.96
9.30
6.61
3.97
1.37
-1.21
-3.76
-6.18
-8.40
-10.41
-12.40
-14.66
-17.51
-21.01
-24.93
-28.81
-32.14
-34.60
-36.26
-37.52
-39.02
-41.37
-45.05
-50.18
-56.41
-62.91
-68.28
-70.89
-69.26
-62.56
-51.01
-35.93
-19.34
-3.37
10.34
20.96
28.44
33.18
35.67
36.32
35.49
33.54
30.94
28.26
25.94
24.26
23.26
22.82
22.78
23.06
23.68
24.69
26.12
27.90
29.84
31.66
32.96
33.41
32.76
30.98
28.27
25.03
21.75
18.79
16.34
14.31
12.44
10.40
7.97
5.10
1.89
-1.42
-4.60
-7.46
-10.00
-12.35
-14.77
-17.54
-20.85
-24.70
-28.83
-32.83
-36.27
-38.93
-40.90
-42.62
-44.70
-47.75
-52.18
-58.00
-64.68
-71.08
-75.60
-76.52
-72.49
-63.07
-49.02
-32.15
-14.74
1.08
13.94
23.38
29.63
33.27
34.91
35.08
34.28
33.01
31.73
30.83
30.46
30.53
30.86
31.21
31.46
31.68
32.00
32.57
33.47
34.64
35.88
36.92
37.45
37.26
36.28
34.56
32.30
29.72
27.03
24.39
21.89
19.57
17.42
15.42
13.53
11.64
9.62
7.33
4.72
1.82
-1.19
-4.11
-6.75
-9.03
-11.01
-12.85
-14.77
-17.00
-19.67
-22.81
-26.28
-29.86
-33.28
-36.34
-39.01
-41.54
-44.38
-48.05
-52.91
-58.89
-65.28
-70.76
-73.66
-72.48
-66.35
-55.44
-40.94
-24.73
-8.87
5.03
16.03
23.93
29.05
31.96
33.26
33.44
32.91
32.01
30.99
30.00
29.08
28.25
27.47
26.85
26.54
26.73
27.53
28.89
30.58
32.29
33.68
34.49
34.61
34.03
32.85
31.20
29.23
27.05
24.76
22.46
20.20
18.02
15.94
13.93
11.94
9.92
7.81
5.58
3.23
0.80
-1.66
-4.08
-6.35
-8.42
-10.29
-12.05
-13.90
-16.00
-18.46
-21.22
-24.10
-26.88
-29.43
-31.79
-34.15
-36.82
-40.09
-44.18
-48.99
-54.08
-58.50
-60.96
-60.13
-55.09
-45.74
-32.93
-18.32
-3.82
8.94
19.00
26.15
30.72
33.23
34.15
33.74
32.19
29.73
26.71
23.65
21.06
19.31
18.50
18.49
19.03
19.84
20.82
21.95
23.24
24.64
25.93
26.83
27.07
26.50
25.16
23.25
21.04
18.79
16.64
14.58
12.46
10.05
7.18
3.82
0.14
-3.50
-6.73
-9.29
-11.18
-12.63
-14.06
-15.85
-18.29
-21.42
-25.07
-28.92
-32.63
-35.93
-38.74
-41.24
-43.79
-46.86
-50.88
-55.99
-61.91
-67.78
-72.25
-73.73
-70.86
-63.03
-50.65
-35.15
-18.59
-3.04
9.98
19.76
26.36
30.30
32.21
32.71
32.28
31.34
30.28
29.41
28.91
28.78
28.90
29.06
29.13
29.05
28.89
28.81
28.94
29.38
30.10
30.96
31.72
32.11
31.96
31.17
29.74
27.70
25.13
22.15
18.88
15.49
12.17
9.05
6.23
3.70
1.36
-0.97
-3.53
-6.48
-9.83
-13.37
-16.75
-19.63
-21.91
-23.78
-25.67
-27.95
-30.74
-33.74
-36.37
-38.05
-38.48
-37.75
-36.41
-35.19
-34.86
-36.01
-38.86
-43.13
-47.96
-51.95
-53.51
-51.27
-44.59
-33.81
-20.21
-5.60
8.22
19.90
28.78
34.84
38.45
40.16
40.45
39.75
38.39
36.68
34.90
33.26
31.91
30.90
30.18
29.71
29.44
29.37
29.52
29.93
30.56
31.31
32.03
32.52
32.57
32.11
31.16
29.85
28.35
26.79
25.15
23.30
21.12
18.55
15.69
12.79
10.13
7.90
6.12
4.66
3.25
1.67
-0.30
-2.74
-5.60
-8.70
-11.76
-14.47
-16.67
-18.37
-19.83
-21.40
-23.38
-25.86
-28.74
-31.77
-34.74
-37.54
-40.25
-43.08
-46.37
-50.41
-55.34
-60.85
-66.13
-69.85
-70.48
-66.81
-58.43
-45.95
-30.87
-15.14
-0.54
11.68
20.95
27.26
30.92
32.43
32.26
30.93
28.95
26.80
24.83
23.33
22.41
22.06
22.17
22.59
23.19
23.96
24.93
26.14
27.57
29.10
30.47
31.42
31.71
31.25
30.08
28.34
26.23
23.97
21.69
19.45
17.27
15.09
12.84
10.44
7.82
4.95
1.87
-1.26
-4.20
-6.73
-8.81
-10.57
-12.38
-14.62
-17.49
-20.96
-24.72
-28.40
-31.71
-34.62
-37.26
-39.93
-42.97
-46.70
-51.37
-57.03
-63.35
-69.50
-74.16
-75.78
-73.04
-65.35
-53.16
-37.88
-21.50
-5.97
7.26
17.55
24.92
29.81
32.74
34.12
34.30
33.60
32.40
31.11
30.06
29.36
28.94
28.64
28.42
28.37
28.71
29.65
31.19
33.14
35.11
36.68
37.55
37.63
36.95
35.70
34.07
32.21
30.22
28.11
25.88
23.51
21.01
18.43
15.76
13.02
10.16
7.21
4.20
1.28
-1.44
-3.88
-6.12
-8.33
-10.74
-13.50
-16.70
-20.28
-24.12
-28.01
-31.73
-35.07
-37.92
-40.39
-42.77
-45.56
-49.26
-54.19
-60.23
-66.70
-72.35
-75.58
-74.87
-69.24
-58.66
-44.11
-27.38
-10.53
4.67
17.11
26.41
32.76
36.57
38.32
38.47
37.52
35.98
34.35
32.99
32.04
31.50
31.26
31.23
31.38
31.74
32.34
33.18
34.22
35.38
36.51
37.45
37.98
37.90
37.09
35.57
33.46
30.99
28.39
25.78
23.25
20.78
18.33
15.82
13.19
10.35
7.27
3.97
0.58
-2.73
-5.75
-8.38
-10.63
-12.71
-14.93
-17.60
-20.85
-24.59
-28.54
-32.36
-35.81
-38.84
-41.62
-44.46
-47.68
-51.58
-56.31
-61.83
-67.72
-73.11
-76.65
-76.80
-72.31
-62.74
-48.70
-31.81
-14.18
2.16
15.78
26.04
33.01
37.17
39.14
39.48
38.69
37.19
35.39
33.63
32.15
31.10
30.49
30.26
30.31
30.59
31.08
31.79
32.76
33.94
35.20
36.30
36.98
36.97
36.10
34.38
31.93
29.03
25.99
23.09
20.49
18.19
16.06
13.91
11.57
8.95
6.09
3.06
-0.02
-3.01
-5.76
-8.14
-10.13
-11.86
-13.61
-15.75
-18.53
-21.93
-25.65
-29.20
-32.17
-34.45
-36.29
-38.23
-40.88
-44.69
-49.70
-55.52
-61.27
-65.70
-67.42
-65.21
-58.46
-47.39
-33.07
-17.23
-1.76
11.78
22.46
30.04
34.82
37.28
37.94
37.15
35.24
32.53
29.43
26.42
23.90
22.15
21.26
21.12
21.60
22.56
23.92
25.60
27.47
29.27
30.68
31.34
31.06
29.81
27.79
25.31
22.66
20.06
17.51
14.92
12.17
9.16
5.93
2.58
-0.73
-3.92
-6.98
-10.00
-13.09
-16.36
-19.83
-23.45
-27.11
-30.66
-33.99
-37.08
-40.05
-43.18
-46.87
-51.48
-57.23
-63.93
-70.80
-76.52
-79.42
-77.94
-71.15
-59.19
-43.29
-25.51
-8.07
7.21
19.31
28.06
33.84
37.25
38.88
39.19
38.59
37.50
36.31
35.33
34.68
34.33
34.14
34.01
33.87
33.77
33.83
34.17
34.88
35.93
37.12
38.12
38.55
38.10
36.70
34.49
31.81
29.00
26.32
23.83
21.46
19.04
16.41
13.44
10.10
6.44
2.62
-1.11
-4.49
-7.35
-9.69
-11.72
-13.77
-16.23
-19.35
-23.15
-27.44
-31.84
-35.93
-39.43
-42.27
-44.70
-47.22
-50.43
-54.84
-60.64
-67.51
-74.45
-79.90
-82.10
-79.53
-71.47
-58.31
-41.50
-23.19
-5.59
9.59
21.46
29.90
35.32
38.35
39.62
39.65
38.90
37.80
36.70
35.81
35.22
34.87
34.65
34.49
34.41
34.54
35.01
35.91
37.14
38.45
39.50
39.98
39.72
38.75
37.25
35.44
33.49
31.47
29.35
27.03
24.46
21.65
18.70
15.74
12.88
10.15
7.49
4.75
1.83
-1.30
-4.55
-7.76
-10.73
-13.40
-15.81
-18.16
-20.67
-23.51
-26.73
-30.24
-33.82
-37.28
-40.48
-43.44
-46.35
-49.55
-53.47
-58.43
-64.45
-71.04
-77.12
-81.11
-81.38
-76.70
-66.74
-52.22
-34.84
-16.72
0.14
14.29
25.08
32.53
37.08
39.35
39.92
39.30
37.96
36.28
34.64
33.29
32.35
31.83
31.63
31.67
31.92
32.41
33.22
34.37
35.76
37.20
38.38
38.96
38.75
37.68
35.87
33.51
30.84
28.02
25.12
22.22
19.35
16.58
13.94
11.43
8.91
6.28
3.44
0.45
-2.52
-5.29
-7.74
-9.97
-12.19
-14.72
-17.72
-21.17
-24.82
-28.34
-31.44
-34.08
-36.42
-38.86
-41.87
-45.85
-51.01
-57.20
-63.78
-69.61
-73.23
-73.12
-68.24
-58.37
-44.37
-27.91
-11.08
4.30
17.01
26.63
33.32
37.53
39.68
40.14
39.21
37.30
34.86
32.41
30.35
28.90
28.10
27.92
28.26
29.05
30.21
31.63
33.16
34.62
35.87
36.76
37.12
36.82
35.74
33.87
31.33
28.40
25.43
22.69
20.32
18.24
16.26
14.12
11.67
8.86
5.77
2.54
-0.67
-3.76
-6.65
-9.35
-11.90
-14.36
-16.88
-19.59
-22.62
-25.97
-29.55
-33.14
-36.49
-39.44
-42.09
-44.75
-48.00
-52.37
-58.14
-65.06
-72.17
-77.86
-80.29
-77.87
-69.84
-56.65
-39.85
-21.65
-4.26
10.64
22.19
30.30
35.33
37.84
38.39
37.52
35.79
33.72
31.81
30.37
29.52
29.21
29.30
29.60
30.01
30.50
31.13
31.99
33.13
34.50
35.88
36.95
37.38
36.98
35.76
33.91
31.66
29.25
26.77
24.23
21.63
18.99
16.38
13.86
11.46
9.11
6.69
4.04
1.09
-2.08
-5.28
-8.22
-10.69
-12.62
-14.18
-15.70
-17.57
-20.02
-23.08
-26.56
-30.16
-33.57
-36.63
-39.36
-41.97
-44.87
-48.50
-53.20
-58.94
-65.07
-70.36
-73.16
-71.93
-65.73
-54.69
-39.95
-23.40
-7.11
7.22
18.57
26.65
31.69
34.24
34.88
34.19
32.70
30.86
29.09
27.66
26.70
26.13
25.76
25.42
25.04
24.72
24.67
25.07
25.99
27.31
28.78
30.07
30.85
30.90
30.09
28.45
26.16
23.48
20.66
17.91
15.28
12.72
10.09
7.28
4.26
1.14
-1.91
-4.67
-7.02
-8.97
-10.72
-12.54
-14.71
-17.38
-20.50
-23.86
-27.18
-30.24
-32.95
-35.39
-37.81
-40.55
-43.99
-48.38
-53.61
-59.04
-63.41
-65.15
-62.82
-55.68
-44.08
-29.44
-13.81
0.75
12.76
21.55
27.23
30.35
31.64
31.73
31.10
30.08
28.90
27.70
26.56
25.50
24.56
23.75
23.17
22.90
23.07
23.74
24.93
26.50
28.21
29.66
30.46
30.29
29.07
26.95
24.31
21.57
19.08
16.97
15.17
13.39
11.30
8.63
5.30
1.52
-2.33
-5.81
-8.64
-10.78
-12.49
-14.15
-16.16
-18.76
-21.97
-25.61
-29.42
-33.11
-36.50
-39.56
-42.48
-45.63
-49.45
-54.24
-59.93
-65.87
-70.88
-73.41
-72.03
-65.86
-54.97
-40.44
-24.14
-8.21
5.58
16.22
23.54
28.04
30.48
31.55
31.73
31.29
30.45
29.45
28.54
27.95
27.75
27.88
28.19
28.54
28.87
29.28
29.89
30.85
32.14
33.60
34.90
35.67
35.62
34.66
32.92
30.66
28.19
25.69
23.22
20.72
18.16
15.54
12.96
10.54
8.33
6.28
4.24
2.03
-0.44
-3.08
-5.69
-8.04
-10.06
-11.92
-13.95
-16.52
-19.78
-23.56
-27.49
-31.12
-34.18
-36.70
-38.99
-41.54
-44.84
-49.29
-54.99
-61.59
-68.20
-73.41
-75.57
-73.27
-65.83
-53.67
-38.16
-21.33
-5.27
8.41
18.84
25.90
30.00
31.85
32.17
31.55
30.41
29.04
27.66
26.45
25.59
25.15
25.14
25.45
25.99
26.67
27.49
28.52
29.77
31.15
32.41
33.23
33.30
32.43
30.64
28.20
25.48
22.87
20.61
18.68
16.86
14.83
12.32
9.29
5.91
2.53
-0.51
-3.02
-5.04
-6.79
-8.63
-10.88
-13.71
-17.11
-20.86
-24.64
-28.13
-31.14
-33.70
-36.01
-38.48
-41.57
-45.70
-51.02
-57.19
-63.27
-67.76
-68.98
-65.64
-57.32
-44.75
-29.63
-13.99
0.36
12.30
21.45
27.96
32.15
34.30
34.67
33.61
31.58
29.19
27.03
25.52
24.84
24.88
25.39
26.09
26.80
27.50
28.33
29.45
30.86
32.40
33.68
34.27
33.93
32.60
30.52
28.01
25.42
22.96
20.71
18.61
16.49
14.14
11.32
7.96
4.17
0.27
-3.35
-6.38
-8.81
-10.92
-13.23
-16.21
-20.06
-24.62
-29.40
-33.84
-37.54
-40.44
-42.83
-45.23
-48.26
-52.41
-57.90
-64.54
-71.53
-77.50
-80.73
-79.59
-73.11
-61.39
-45.66
-28.01
-10.68
4.54
16.67
25.54
31.50
35.12
36.91
37.34
36.87
36.00
35.20
34.81
34.91
35.35
35.84
36.16
36.25
36.29
36.52
37.17
38.27
39.66
41.03
42.01
42.32
41.80
40.47
38.45
35.95
33.18
30.36
27.63
25.07
22.62
20.13
17.43
14.36
10.89
7.09
3.17
-0.65
-4.16
-7.27
-10.06
-12.68
-15.38
-18.37
-21.77
-25.55
-29.51
-33.37
-36.90
-40.01
-42.87
-45.85
-49.50
-54.32
-60.51
-67.73
-74.94
-80.51
-82.57
-79.58
-70.88
-57.03
-39.69
-21.16
-3.69
11.06
22.33
30.15
35.08
37.83
39.02
39.16
38.62
37.76
36.89
36.26
36.00
36.06
36.30
36.59
36.85
37.17
37.69
38.52
39.66
40.89
41.94
42.50
42.37
41.51
39.99
37.95
35.55
32.95
30.22
27.43
24.59
21.67
18.68
15.71
12.87
10.27
7.91
5.63
3.18
0.36
-2.85
-6.22
-9.34
-11.89
-13.79
-15.33
-17.03
-19.39
-22.66
-26.65
-30.87
-34.77
-37.98
-40.52
-42.76
-45.27
-48.60
-53.09
-58.77
-65.29
-71.82
-77.10
-79.52
-77.57
-70.31
-57.81
-41.31
-22.93
-5.01
10.52
22.60
31.06
36.35
39.12
39.98
39.37
37.65
35.22
32.58
30.17
28.34
27.24
26.81
26.89
27.30
27.95
28.86
30.10
31.71
33.58
35.39
36.68
36.99
36.10
34.07
31.28
28.23
25.34
22.78
20.42
17.99
15.17
11.81
7.96
3.88
-0.08
-3.59
-6.45
-8.67
-10.57
-12.60
-15.24
-18.73
-23.01
-27.67
-32.20
-36.19
-39.51
-42.31
-44.90
-47.71
-51.15
-55.59
-61.24
-67.86
-74.57
-79.81
-81.62
-78.29
-69.06
-54.49
-36.42
-17.37
0.23
14.76
25.59
32.95
37.53
40.02
40.96
40.71
39.61
38.09
36.63
35.60
35.15
35.13
35.23
35.14
34.82
34.49
34.51
35.22
36.64
38.44
40.08
41.01
40.88
39.67
37.56
34.85
31.80
28.60
25.38
22.24
19.28
16.53
13.93
11.29
8.41
5.17
1.65
-1.91
-5.18
-7.93
-10.18
-12.17
-14.32
-17.00
-20.39
-24.43
-28.80
-33.08
-36.87
-39.98
-42.52
-44.86
-47.55
-51.16
-56.03
-62.15
-68.97
-75.42
-80.00
-81.11
-77.43
-68.41
-54.52
-37.27
-18.85
-1.45
13.24
24.43
32.18
37.05
39.72
40.76
40.56
39.45
37.78
35.94
34.27
32.99
32.13
31.66
31.56
31.85
32.63
33.89
35.50
37.20
38.65
39.56
39.76
39.20
37.97
36.23
34.14
31.86
29.52
27.19
24.85
22.49
20.04
17.44
14.68
11.78
8.82
5.84
2.91
0.06
-2.70
-5.37
-7.94
-10.42
-12.87
-15.44
-18.29
-21.56
-25.26
-29.17
-32.93
-36.17
-38.70
-40.68
-42.56
-45.02
-48.66
-53.80
-60.34
-67.57
-74.25
-78.76
-79.42
-75.02
-65.24
-50.87
-33.71
-15.98
0.24
13.56
23.49
30.24
34.36
36.47
37.02
36.39
34.92
32.99
30.98
29.20
27.81
26.84
26.20
25.82
25.67
25.84
26.46
27.65
29.35
31.31
33.10
34.19
34.17
32.92
30.62
27.75
24.80
22.16
19.90
17.84
15.65
13.03
9.86
6.26
2.47
-1.23
-4.63
-7.72
-10.65
-13.65
-16.89
-20.43
-24.14
-27.82
-31.20
-34.17
-36.80
-39.36
-42.27
-46.00
-50.86
-56.87
-63.55
-69.86
-74.25
-75.06
-71.00
-61.70
-47.89
-31.27
-14.01
1.90
15.12
25.11
32.01
36.29
38.46
39.00
38.32
36.85
35.01
33.22
31.76
30.75
30.20
29.97
29.98
30.18
30.62
31.39
32.55
34.02
35.60
36.89
37.51
37.14
35.69
33.33
30.41
27.34
24.46
21.87
19.48
16.98
14.07
10.61
6.66
2.51
-1.46
-4.96
-7.90
-10.40
-12.79
-15.40
-18.48
-22.11
-26.15
-30.34
-34.37
-37.97
-41.04
-43.76
-46.54
-49.99
-54.65
-60.72
-67.77
-74.64
-79.59
-80.76
-76.76
-67.19
-52.83
-35.45
-17.30
-0.45
13.65
24.34
31.64
36.04
38.16
38.65
38.08
37.00
35.86
34.97
34.48
34.33
34.36
34.37
34.29
34.16
34.18
34.50
35.25
36.34
37.55
38.55
39.03
38.79
37.76
36.05
33.86
31.40
28.88
26.36
23.84
21.26
18.54
15.67
12.72
9.77
6.87
3.99
1.04
-2.05
-5.27
-8.48
-11.50
-14.18
-16.52
-18.79
-21.36
-24.51
-28.31
-32.47
-36.49
-39.95
-42.69
-44.95
-47.22
-50.05
-53.84
-58.72
-64.53
-70.77
-76.56
-80.58
-81.34
-77.48
-68.31
-54.26
-36.82
-18.23
-0.73
13.99
25.18
32.90
37.72
40.28
41.16
40.82
39.67
38.14
36.62
35.36
34.46
33.89
33.57
33.46
33.58
33.99
34.72
35.70
36.82
37.90
38.74
39.17
39.02
38.15
36.50
34.15
31.31
28.28
25.37
22.74
20.44
18.36
16.34
14.22
11.84
9.08
5.86
2.23
-1.56
-5.15
-8.15
-10.37
-11.93
-13.27
-14.90
-17.21
-20.25
-23.81
-27.47
-30.82
-33.65
-35.95
-37.96
-40.05
-42.73
-46.42
-51.30
-57.10
-62.92
-67.40
-69.00
-66.42
-59.11
-47.44
-32.64
-16.49
-0.87
12.68
23.27
30.67
35.17
37.30
37.59
36.46
34.20
31.14
27.71
24.40
21.73
20.02
19.35
19.60
20.53
21.93
23.67
25.64
27.66
29.47
30.75
31.22
30.75
29.40
27.38
24.94
22.27
19.44
16.42
13.16
9.67
6.05
2.46
-0.89
-3.91
-6.68
-9.40
-12.38
-15.85
-19.85
-24.23
-28.63
-32.68
-36.11
-38.92
-41.39
-43.98
-47.25
-51.57
-57.03
-63.19
-69.05
-73.18
-73.98
-70.15
-61.21
-47.72
-31.26
-13.98
2.01
15.17
24.81
31.02
34.39
35.72
35.75
35.06
34.12
33.25
32.64
32.35
32.30
32.32
32.24
31.96
31.56
31.25
31.30
31.95
33.19
34.79
36.26
37.10
36.96
35.74
33.68
31.15
28.51
25.98
23.62
21.40
19.21
16.97
14.54
11.79
8.62
5.13
1.55
-1.78
-4.61
-6.91
-8.89
-10.97
-13.50
-16.65
-20.33
-24.25
-28.04
-31.44
-34.38
-36.96
-39.48
-42.33
-45.93
-50.62
-56.50
-63.22
-69.93
-75.27
-77.62
-75.55
-68.30
-56.12
-40.39
-23.20
-6.81
7.04
17.51
24.63
29.06
31.60
32.88
33.33
33.14
32.49
31.55
30.52
29.55
28.75
28.17
27.91
28.04
28.62
29.64
30.98
32.47
33.91
35.09
35.87
36.08
35.63
34.48
32.69
30.42
27.90
25.34
22.85
20.47
18.18
15.90
13.63
11.32
8.91
6.34
3.56
0.64
-2.30
-5.03
-7.36
-9.24
-10.78
-12.26
-14.00
-16.25
-19.09
-22.42
-25.99
-29.48
-32.66
-35.44
-37.95
-40.51
-43.56
-47.53
-52.60
-58.53
-64.51
-69.22
-71.09
-68.77
-61.58
-49.89
-35.00
-18.86
-3.43
9.76
19.91
26.95
31.21
33.21
33.46
32.38
30.44
28.11
25.87
24.09
22.95
22.44
22.36
22.52
22.82
23.30
24.10
25.32
26.93
28.71
30.28
31.25
31.29
30.31
28.39
25.81
22.94
20.11
17.51
15.13
12.78
10.22
7.29
4.02
0.59
-2.75
-5.90
-8.89
-11.94
-15.25
-18.90
-22.80
-26.74
-30.44
-33.77
-36.69
-39.37
-42.13
-45.45
-49.79
-55.47
-62.36
-69.66
-75.92
-79.31
-78.16
-71.55
-59.72
-44.04
-26.70
-9.97
4.35
15.40
23.14
28.15
31.18
32.88
33.68
33.86
33.68
33.39
33.18
33.15
33.23
33.27
33.13
32.85
32.60
32.69
33.37
34.70
36.51
38.42
39.94
40.65
40.32
39.00
36.91
34.38
31.70
29.04
26.44
23.86
21.21
18.39
15.28
11.82
8.02
4.02
0.11
-3.39
-6.26
-8.54
-10.52
-12.66
-15.38
-18.87
-23.00
-27.40
-31.60
-35.30
-38.42
-41.19
-44.02
-47.39
-51.72
-57.23
-63.73
-70.48
-76.21
-79.28
-78.10
-71.71
-60.13
-44.49
-26.78
-9.19
6.35
18.68
27.44
32.95
35.89
37.04
37.07
36.53
35.84
35.28
35.04
35.14
35.49
35.89
36.14
36.12
35.90
35.69
35.75
36.24
37.14
38.21
39.11
39.58
39.47
38.79
37.61
35.96
33.82
31.14
27.94
24.35
20.60
16.96
13.58
10.50
7.59
4.71
1.77
-1.18
-3.98
-6.51
-8.75
-10.84
-13.05
-15.62
-18.69
-22.24
-26.07
-29.94
-33.61
-36.93
-39.96
-42.89
-46.11
-50.06
-55.12
-61.34
-68.27
-74.90
-79.70
-81.02
-77.58
-68.89
-55.57
-39.24
-21.99
-5.89
7.63
17.99
25.33
30.21
33.24
34.82
35.23
34.66
33.40
31.81
30.29
29.11
28.38
28.08
28.08
28.34
28.88
29.79
31.12
32.80
34.60
36.17
37.14
37.27
36.49
34.90
32.73
30.21
27.56
24.92
22.38
19.99
17.71
15.44
13.01
10.29
7.24
3.99
0.82
-1.97
-4.21
-6.00
-7.69
-9.75
-12.53
-16.12
-20.22
-24.33
-27.91
-30.66
-32.67
-34.36
-36.35
-39.21
-43.33
-48.71
-54.95
-61.15
-66.04
-68.12
-66.10
-59.29
-47.92
-33.24
-17.17
-1.76
11.39
21.46
28.39
32.60
34.65
35.03
34.09
32.18
29.74
27.24
25.09
23.52
22.55
22.08
22.01
22.33
23.12
24.45
26.24
28.30
30.24
31.68
32.26
31.85
30.49
28.40
25.89
23.24
20.58
17.89
15.03
11.86
8.37
4.70
1.11
-2.14
-4.96
-7.46
-9.96
-12.83
-16.28
-20.30
-24.60
-28.78
-32.46
-35.52
-38.06
-40.43
-43.07
-46.46
-50.92
-56.51
-62.85
-69.03
-73.63
-74.99
-71.77
-63.39
-50.39
-34.35
-17.43
-1.73
11.25
20.86
27.22
30.91
32.66
33.15
32.90
32.29
31.62
31.10
30.84
30.88
31.12
31.43
31.67
31.77
31.81
31.97
32.46
33.38
34.64
35.92
36.79
36.86
35.93
34.09
31.62
28.91
26.33
24.05
22.09
20.24
18.24
15.84
12.90
9.45
5.71
1.98
-1.47
-4.47
-6.99
-9.19
-11.29
-13.57
-16.27
-19.51
-23.28
-27.33
-31.33
-34.95
-38.03
-40.66
-43.24
-46.34
-50.54
-56.10
-62.81
-69.79
-75.60
-78.49
-76.96
-70.20
-58.43
-42.99
-25.89
-9.26
5.24
16.70
24.98
30.41
33.54
34.91
34.97
34.18
32.95
31.67
30.64
30.00
29.75
29.77
29.93
30.16
30.44
30.84
31.47
32.43
33.70
35.12
36.37
37.09
36.98
35.95
34.09
31.68
29.02
26.34
23.73
21.21
18.72
16.16
13.46
10.60
7.59
4.55
1.62
-1.11
-3.62
-6.06
-8.66
-11.63
-15.10
-18.99
-23.10
-27.07
-30.59
-33.51
-35.87
-37.97
-40.32
-43.46
-47.84
-53.57
-60.29
-67.02
-72.33
-74.61
-72.51
-65.41
-53.66
-38.62
-22.23
-6.53
6.88
17.17
24.26
28.60
30.82
31.55
31.28
30.41
29.29
28.22
27.37
26.77
26.34
25.91
25.43
25.01
24.88
25.32
26.44
28.10
29.88
31.30
31.94
31.64
30.48
28.73
26.63
24.35
21.91
19.29
16.44
13.43
10.34
7.30
4.38
1.56
-1.27
-4.29
-7.64
-11.38
-15.44
-19.58
-23.52
-27.01
-29.95
-32.44
-34.79
-37.40
-40.75
-45.17
-50.72
-56.97
-62.90
-67.02
-67.69
-63.70
-54.73
-41.55
-25.89
-9.87
4.64
16.44
25.10
30.83
34.10
35.47
35.45
34.56
33.28
32.01
30.99
30.21
29.56
28.92
28.26
27.73
27.54
27.88
28.83
30.26
31.90
33.38
34.30
34.35
33.40
31.52
29.02
26.28
23.62
21.19
18.88
16.47
13.69
10.44
6.81
3.05
-0.58
-3.91
-6.98
-9.99
-13.19
-16.75
-20.65
-24.68
-28.53
-31.94
-34.86
-37.43
-40.06
-43.24
-47.45
-52.95
-59.60
-66.67
-72.83
-76.41
-75.78
-69.97
-59.05
-44.22
-27.48
-11.02
3.37
14.75
23.00
28.53
31.96
33.84
34.54
34.40
33.74
32.91
32.22
31.82
31.70
31.72
31.73
31.69
31.73
32.04
32.78
33.92
35.23
36.32
36.81
36.47
35.27
33.38
31.09
28.70
26.47
24.53
22.88
21.35
19.68
17.54
14.70
11.10
6.96
2.64
-1.40
-4.81
-7.48
-9.57
-11.50
-13.69
-16.47
-19.92
-23.84
-27.90
-31.76
-35.23
-38.35
-41.38
-44.70
-48.77
-53.89
-60.11
-66.92
-73.23
-77.48
-78.01
-73.62
-64.01
-50.00
-33.37
-16.24
-0.58
12.31
21.87
28.19
31.76
33.22
33.23
32.41
31.35
30.44
29.93
29.86
30.09
30.41
30.67
30.83
30.95
31.20
31.72
32.58
33.70
34.88
35.84
36.29
36.08
35.17
33.70
31.84
29.79
27.66
25.49
23.29
21.08
18.84
16.58
14.26
11.81
9.17
6.34
3.40
0.48
-2.23
-4.56
-6.44
-7.93
-9.22
-10.59
-12.31
-14.62
-17.57
-21.07
-24.90
-28.77
-32.44
-35.78
-38.83
-41.80
-45.04
-48.96
-53.85
-59.66
-65.83
-71.20
-74.21
-73.32
-67.55
-56.90
-42.41
-25.95
-9.61
4.90
16.55
25.08
30.70
33.83
34.90
34.34
32.63
30.35
28.06
26.22
25.02
24.44
24.33
24.54
25.02
25.78
26.87
28.26
29.85
31.44
32.80
33.69
33.92
33.30
31.81
29.55
26.81
23.97
21.35
19.08
17.03
14.89
12.32
9.16
5.52
1.74
-1.73
-4.55
-6.70
-8.46
-10.34
-12.81
-16.13
-20.21
-24.69
-29.10
-33.06
-36.38
-39.16
-41.72
-44.53
-48.10
-52.87
-58.94
-65.86
-72.54
-77.34
-78.48
-74.64
-65.40
-51.58
-34.90
-17.60
-1.69
11.44
21.26
27.93
32.02
34.20
35.01
34.89
34.23
33.39
32.70
32.36
32.43
32.77
33.20
33.59
33.90
34.26
34.81
35.65
36.75
37.97
39.05
39.74
39.84
39.26
38.06
36.35
34.26
31.90
29.32
26.56
23.70
20.90
18.26
15.85
13.55
11.17
8.50
5.46
2.12
-1.31
-4.58
-7.55
-10.19
-12.61
-15.00
-17.58
-20.55
-24.00
-27.86
-31.94
-35.92
-39.56
-42.75
-45.65
-48.67
-52.33
-57.08
-63.07
-69.86
-76.38
-80.99
-81.93
-77.80
-68.16
-53.73
-36.30
-18.14
-1.36
12.62
23.21
30.53
35.03
37.22
37.60
36.68
35.01
33.18
31.72
30.94
30.87
31.30
31.92
32.48
32.89
33.26
33.77
34.59
35.75
37.06
38.17
38.74
38.56
37.64
36.18
34.45
32.61
30.68
28.54
26.06
23.22
20.16
17.12
14.38
12.07
10.16
8.45
6.64
4.48
1.85
-1.17
-4.37
-7.44
-10.15
-12.43
-14.39
-16.32
-18.50
-21.16
-24.32
-27.85
-31.50
-35.02
-38.26
-41.26
-44.27
-47.69
-51.95
-57.32
-63.67
-70.30
-75.87
-78.70
-77.17
-70.36
-58.45
-42.77
-25.40
-8.58
6.00
17.50
25.91
31.63
35.12
36.65
36.41
34.71
32.09
29.30
27.07
25.81
25.53
25.93
26.59
27.24
27.83
28.51
29.48
30.81
32.38
33.89
34.99
35.38
34.93
33.66
31.72
29.30
26.63
23.88
21.16
18.46
15.72
12.79
9.59
6.11
2.54
-0.89
-3.93
-6.47
-8.60
-10.58
-12.71
-15.27
-18.38
-21.99
-25.92
-29.89
-33.55
-36.69
-39.28
-41.60
-44.18
-47.63
-52.42
-58.51
-65.16
-70.99
-74.20
-73.15
-66.86
-55.44
-40.15
-23.06
-6.42
7.95
19.07
26.82
31.64
34.22
35.14
34.91
33.94
32.70
31.58
30.86
30.59
30.60
30.65
30.58
30.44
30.44
30.78
31.57
32.72
34.06
35.33
36.31
36.83
36.76
36.04
34.69
32.79
30.51
28.02
25.46
22.90
20.39
17.94
15.56
13.27
11.04
8.81
6.52
4.16
1.78
-0.56
-2.78
-4.87
-6.91
-9.04
-11.47
-14.38
-17.84
-21.75
-25.82
-29.67
-33.00
-35.68
-37.90
-40.10
-42.85
-46.68
-51.83
-58.03
-64.43
-69.65
-72.02
-70.06
-62.96
-50.97
-35.42
-18.37
-2.02
11.88
22.36
29.30
33.19
34.74
34.67
33.56
31.86
29.97
28.22
26.88
26.08
25.81
25.89
26.13
26.39
26.66
27.04
27.64
28.55
29.67
30.76
31.54
31.75
31.30
30.23
28.72
26.98
25.15
23.28
21.29
19.06
16.55
13.80
11.02
8.46
6.30
4.56
3.08
1.59
-0.16
-2.28
-4.67
-7.13
-9.43
-11.51
-13.42
-15.39
-17.62
-20.20
-23.13
-26.26
-29.37
-32.27
-34.85
-37.11
-39.25
-41.60
-44.59
-48.63
-53.86
-59.98
-66.08
-70.73
-72.25
-69.25
-61.10
-48.29
-32.35
-15.49
0.09
12.74
21.75
27.26
30.04
30.97
30.80
29.99
28.79
27.36
25.86
24.52
23.51
22.90
22.65
22.64
22.80
23.17
23.87
24.97
26.44
28.03
29.33
29.99
29.80
28.80
27.25
25.51
23.86
22.38
21.03
19.58
17.84
15.72
13.23
10.54
7.86
5.37
3.17
1.25
-0.49
-2.16
-3.87
-5.63
-7.39
-9.11
-10.76
-12.40
-14.18
-16.28
-18.79
-21.67
-24.74
-27.75
-30.46
-32.79
-34.84
-36.91
-39.38
-42.68
-47.11
-52.68
-58.90
-64.73
-68.64
-69.04
-64.74
-55.53
-42.27
-26.77
-11.17
2.69
13.75
21.82
27.27
30.65
32.35
32.56
31.41
29.22
26.46
23.74
21.55
20.09
19.34
19.14
19.37
19.99
21.06
22.55
24.32
26.09
27.58
28.54
28.87
28.61
27.86
26.77
25.42
23.88
22.17
20.28
18.17
15.85
13.32
10.62
7.80
4.91
2.01
-0.85
-3.59
-6.16
-8.51
-10.66
-12.71
-14.80
-17.12
-19.82
-23.00
-26.58
-30.37
-34.03
-37.31
-40.07
-42.43
-44.73
-47.47
-51.17
-56.16
-62.42
-69.43
-76.07
-80.76
-81.78
-77.83
-68.50
-54.50
-37.57
-19.95
-3.72
9.73
19.84
26.80
31.15
33.50
34.38
34.23
33.44
32.41
31.44
30.77
30.47
30.49
30.72
31.07
31.51
32.12
33.05
34.40
36.16
38.15
40.00
41.32
41.76
41.20
39.71
37.57
35.03
32.33
29.57
26.80
24.03
21.31
18.70
16.21
13.78
11.29
8.63
5.77
2.80
-0.09
-2.73
-5.09
-7.32
-9.68
-12.44
-15.73
-19.50
-23.52
-27.54
-31.33
-34.77
-37.89
-40.81
-43.79
-47.20
-51.49
-57.01
-63.73
-71.00
-77.49
-81.40
-80.94
-74.97
-63.42
-47.41
-28.96
-10.41
6.16
19.41
28.82
34.64
37.53
38.29
37.68
36.37
34.88
33.65
32.94
32.79
33.07
33.52
33.91
34.16
34.39
34.79
35.53
36.62
37.94
39.25
40.29
40.85
40.79
40.05
38.66
36.76
34.55
32.23
29.92
27.61
25.22
22.67
19.95
17.20
14.58
12.18
9.95
7.78
5.47
2.93
0.19
-2.62
-5.27
-7.61
-9.59
-11.36
-13.19
-15.40
-18.19
-21.54
-25.23
-28.89
-32.19
-34.99
-37.42
-39.88
-42.85
-46.78
-51.86
-57.88
-64.12
-69.36
-72.10
-70.94
-65.02
-54.37
-39.99
-23.55
-7.03
7.82
19.83
28.51
33.95
36.59
37.03
35.89
33.72
31.07
28.45
26.29
24.86
24.21
24.17
24.47
24.90
25.41
26.13
27.24
28.84
30.74
32.54
33.77
34.06
33.32
31.72
29.57
27.19
24.71
22.14
19.37
16.28
12.82
9.10
5.34
1.79
-1.32
-3.93
-6.19
-8.45
-11.12
-14.46
-18.47
-22.89
-27.24
-31.15
-34.43
-37.23
-39.90
-42.88
-46.57
-51.23
-56.86
-63.12
-69.15
-73.61
-74.89
-71.59
-63.05
-49.75
-33.32
-16.02
-0.09
12.93
22.47
28.79
32.62
34.66
35.46
35.35
34.68
33.83
33.20
33.07
33.46
34.15
34.79
35.14
35.21
35.20
35.41
36.05
37.10
38.31
39.34
39.88
39.76
38.98
37.66
35.94
33.92
31.63
29.11
26.40
23.61
20.88
18.30
15.88
13.54
11.13
8.57
5.84
3.02
0.23
-2.41
-4.90
-7.31
-9.81
-12.55
-15.64
-19.02
-22.57
-26.08
-29.39
-32.41
-35.18
-37.85
-40.64
-43.86
-47.81
-52.77
-58.78
-65.48
-71.89
-76.55
-77.75
-74.13
-65.17
-51.54
-34.95
-17.69
-1.92
10.92
20.28
26.47
30.22
32.31
33.32
33.58
33.34
32.80
32.16
31.58
31.13
30.82
30.58
30.42
30.42
30.73
31.48
32.71
34.29
35.96
37.31
37.99
37.78
36.70
34.96
32.91
30.85
28.98
27.29
25.63
23.81
21.68
19.22
16.57
13.92
11.53
9.50
7.86
6.46
5.05
3.43
1.45
-0.87
-3.38
-5.91
-8.33
-10.62
-12.89
-15.29
-17.96
-20.92
-24.11
-27.33
-30.38
-33.15
-35.69
-38.17
-40.91
-44.22
-48.39
-53.51
-59.35
-65.24
-70.02
-72.24
-70.51
-64.04
-52.99
-38.56
-22.68
-7.41
5.59
15.51
22.31
26.52
28.80
29.71
29.63
28.82
27.54
26.03
24.59
23.40
22.59
22.21
22.27
22.75
23.62
24.84
26.28
27.79
29.20
30.33
31.00
31.08
30.48
29.20
27.37
25.22
23.02
21.00
19.24
17.71
16.24
14.63
12.68
10.31
7.50
4.37
1.16
-1.87
-4.47
-6.54
-8.14
-9.54
-11.06
-13.04
-15.70
-19.00
-22.73
-26.53
-30.01
-32.93
-35.32
-37.42
-39.68
-42.61
-46.58
-51.71
-57.64
-63.47
-67.85
-69.25
-66.41
-58.85
-47.09
-32.59
-17.31
-3.13
8.65
17.50
23.47
27.00
28.63
28.87
28.23
27.16
26.09
25.32
24.95
24.89
24.95
24.96
24.86
24.76
24.89
25.46
26.58
28.13
29.85
31.39
32.43
32.79
32.42
31.38
29.73
27.55
24.95
22.08
19.19
16.52
14.24
12.35
10.65
8.89
6.84
4.41
1.71
-1.06
-3.67
-6.04
-8.19
-10.30
-12.57
-15.16
-18.14
-21.49
-25.05
-28.66
-32.11
-35.28
-38.16
-40.90
-43.83
-47.32
-51.74
-57.19
-63.40
-69.54
-74.30
-76.18
-73.85
-66.70
-55.09
-40.35
-24.42
-9.24
3.68
13.65
20.70
25.28
28.01
29.34
29.58
29.01
27.95
26.83
26.04
25.83
26.19
26.94
27.80
28.63
29.45
30.39
31.60
33.06
34.60
35.94
36.79
36.96
36.42
35.28
33.72
31.93
30.08
28.23
26.30
24.21
21.84
19.24
16.54
13.96
11.69
9.77
8.11
6.50
4.74
2.71
0.41
-2.05
-4.51
-6.86
-9.10
-11.39
-13.94
-16.92
-20.34
-24.03
-27.66
-31.00
-33.95
-36.65
-39.39
-42.49
-46.21
-50.77
-56.21
-62.38
-68.70
-74.11
-77.12
-76.19
-70.28
-59.31
-44.37
-27.41
-10.65
4.06
15.66
23.93
29.26
32.25
33.51
33.46
32.50
31.01
29.44
28.19
27.52
27.50
27.95
28.66
29.43
30.21
31.08
32.14
33.43
34.86
36.20
37.18
37.59
37.33
36.40
34.94
33.12
31.09
28.94
26.65
24.14
21.36
18.40
15.43
12.67
10.29
8.26
6.41
4.49
2.34
-0.06
-2.60
-5.15
-7.64
-10.13
-12.73
-15.55
-18.61
-21.80
-24.98
-27.98
-30.70
-33.14
-35.51
-38.13
-41.43
-45.77
-51.31
-57.71
-64.16
-69.33
-71.73
-70.06
-63.65
-52.75
-38.52
-22.74
-7.34
6.14
16.78
24.39
29.30
32.04
33.16
33.08
32.15
30.69
29.01
27.43
26.17
25.39
25.08
25.21
25.68
26.47
27.58
29.01
30.74
32.60
34.29
35.42
35.70
34.98
33.40
31.28
29.00
26.82
24.81
22.89
20.93
18.87
16.64
14.28
11.74
9.03
6.13
3.14
0.23
-2.42
-4.69
-6.59
-8.26
-9.92
-11.90
-14.47
-17.79
-21.77
-26.08
-30.24
-33.78
-36.50
-38.51
-40.30
-42.58
-46.00
-51.01
-57.50
-64.72
-71.27
-75.33
-75.16
-69.70
-58.99
-44.23
-27.48
-10.99
3.44
14.77
22.76
27.78
30.40
31.25
30.94
29.96
28.80
27.86
27.39
27.43
27.87
28.48
29.04
29.46
29.78
30.17
30.85
31.93
33.37
34.90
36.12
36.66
36.30
35.05
33.16
30.98
28.85
26.91
25.17
23.45
21.57
19.47
17.17
14.82
12.51
10.27
8.00
5.57
2.95
0.25
-2.34
-4.60
-6.48
-8.08
-9.60
-11.29
-13.34
-15.89
-18.97
-22.50
-26.25
-29.90
-33.08
-35.60
-37.59
-39.47
-41.93
-45.55
-50.58
-56.65
-62.72
-67.26
-68.61
-65.48
-57.38
-44.90
-29.56
-13.45
1.39
13.47
22.17
27.63
30.46
31.35
30.93
29.64
27.86
25.95
24.27
23.08
22.49
22.43
22.69
23.04
23.32
23.55
23.88
24.54
25.66
27.19
28.83
30.16
30.80
30.56
29.51
27.85
25.88
23.78
21.64
19.46
17.27
15.11
12.99
10.88
8.70
6.34
3.76
0.99
-1.83
-4.56
-7.09
-9.40
-11.56
-13.71
-16.02
-18.63
-21.60
-24.85
-28.24
-31.57
-34.66
-37.50
-40.20
-43.01
-46.33
-50.53
-55.82
-62.03
-68.42
-73.65
-76.00
-73.93
-66.64
-54.51
-39.07
-22.53
-7.09
5.71
15.27
21.80
25.92
28.32
29.47
29.73
29.35
28.66
28.00
27.65
27.67
27.94
28.21
28.29
28.16
28.01
28.15
28.87
30.21
31.97
33.75
35.10
35.75
35.60
34.78
33.48
31.88
30.03
27.97
25.66
23.15
20.51
17.85
15.32
13.00
10.93
9.07
7.29
5.46
3.48
1.33
-0.93
-3.23
-5.48
-7.69
-9.95
-12.38
-15.09
-18.08
-21.27
-24.46
-27.45
-30.12
-32.50
-34.79
-37.39
-40.71
-45.07
-50.50
-56.67
-62.72
-67.45
-69.43
-67.45
-60.91
-50.12
-36.25
-21.14
-6.66
5.74
15.29
21.94
26.08
28.23
28.83
28.23
26.77
24.85
22.88
21.21
20.01
19.30
18.97
18.97
19.38
20.31
21.91
24.10
26.63
29.02
30.79
31.57
31.25
29.97
28.05
25.83
23.57
21.38
19.24
16.98
14.43
11.47
8.14
4.63
1.23
-1.83
-4.45
-6.81
-9.21
-11.98
-15.25
-18.90
-22.60
-26.00
-28.88
-31.33
-33.67
-36.38
-39.93
-44.62
-50.44
-56.92
-63.10
-67.64
-69.06
-66.24
-58.78
-47.25
-33.06
-18.13
-4.26
7.25
15.86
21.66
25.20
27.09
27.88
27.95
27.59
27.02
26.46
26.08
25.95
26.08
26.39
26.78
27.21
27.73
28.42
29.35
30.49
31.75
32.93
33.83
34.23
33.98
33.00
31.32
29.08
26.49
23.81
21.21
18.77
16.44
14.13
11.74
9.27
6.73
4.20
1.74
-0.61
-2.86
-5.06
-7.34
-9.88
-12.84
-16.28
-20.09
-23.98
-27.63
-30.81
-33.51
-36.00
-38.72
-42.20
-46.83
-52.75
-59.65
-66.69
-72.53
-75.55
-74.31
-68.05
-57.06
-42.64
-26.75
-11.47
1.62
11.70
18.73
23.16
25.65
26.89
27.41
27.67
27.96
28.46
29.24
30.22
31.23
32.11
32.72
33.04
33.18
33.33
33.70
34.40
35.37
36.41
37.22
37.53
37.16
36.10
34.49
32.53
30.46
28.43
26.53
24.73
22.97
21.15
19.18
17.04
14.75
12.40
10.09
7.89
5.84
3.90
2.02
0.15
-1.72
-3.61
-5.54
-7.60
-9.97
-12.84
-16.29
-20.20
-24.26
-28.04
-31.21
-33.68
-35.74
-37.91
-40.85
-45.03
-50.56
-56.93
-63.04
-67.36
-68.33
-64.86
-56.72
-44.69
-30.35
-15.61
-2.20
8.80
16.95
22.40
25.58
26.99
27.13
26.40
25.19
23.88
22.77
22.08
21.93
22.29
23.04
23.99
24.96
25.87
26.73
27.66
28.75
29.99
31.18
31.96
31.95
30.94
28.96
26.33
23.49
20.87
18.65
16.79
15.03
13.08
10.73
7.98
5.02
2.11
-0.47
-2.64
-4.45
-6.14
-8.03
-10.37
-13.27
-16.64
-20.22
-23.72
-26.93
-29.76
-32.35
-34.98
-38.03
-41.89
-46.86
-52.89
-59.44
-65.37
-69.18
-69.36
-65.00
-56.14
-43.83
-29.84
-16.00
-3.75
6.14
13.58
18.82
22.26
24.29
25.27
25.58
25.64
25.78
26.21
26.91
27.70
28.37
28.82
29.06
29.23
29.51
30.04
30.85
31.89
32.99
33.93
34.47
34.41
33.63
32.21
30.32
28.26
26.23
24.33
22.49
20.60
18.53
16.26
13.92
11.66
9.66
7.98
6.57
5.25
3.83
