1629214371.00
64.000000
-0.00
-0.00
-0.00
-0.00
-0.00
-0.00
-0.00
-0.00
-0.00
-0.00
0.00
0.01
0.01
-0.00
-0.03
-0.05
-0.05
0.00
0.13
0.36
0.66
1.01
1.37
1.72
2.06
2.40
2.79
3.24
3.80
4.42
5.06
5.66
6.20
6.68
7.15
7.68
8.31
9.14
10.09
11.04
11.89
12.57
13.14
13.76
14.65
15.95
17.91
20.34
22.95
25.44
27.62
29.55
31.52
33.98
37.28
41.84
47.33
53.23
58.94
64.07
68.63
73.08
78.12
84.31
92.23
101.41
111.04
120.20
128.24
135.09
141.36
148.39
154.98
163.52
174.69
188.57
203.85
217.40
224.69
221.00
203.03
170.15
125.05
71.80
14.74
-43.16
-100.77
-158.25
-215.92
-273.33
-329.16
-381.32
-428.44
-469.78
-505.17
-534.47
-556.98
-571.31
-575.44
-567.56
-546.59
-513.07
-468.98
-417.34
-361.55
-304.67
-249.18
-196.91
-149.03
-105.69
-65.99
-27.76
11.73
54.57
101.01
148.90
194.25
232.70
261.15
278.68
286.40
286.54
281.25
272.07
259.93
245.64
230.20
214.77
200.32
187.24
175.28
163.69
151.63
138.61
124.78
110.83
97.72
86.21
76.56
68.38
60.81
53.05
44.78
36.35
28.67
22.80
19.25
17.83
17.74
17.90
17.37
15.69
12.89
9.40
5.73
2.29
-0.73
-3.32
-5.54
-7.50
-9.22
-10.69
-11.83
-12.54
-12.73
-12.38
-11.56
-10.48
-9.38
-8.51
-7.97
-7.73
-7.63
-7.51
-7.30
-7.05
-6.81
-6.57
-6.25
-5.78
-5.20
-4.69
-4.48
-4.67
-5.12
-5.43
-5.13
-3.91
-1.79
0.84
3.39
5.30
6.25
6.19
5.34
3.99
2.42
0.80
-0.77
-2.24
-3.55
-4.60
-5.33
-5.67
-5.67
-5.40
-4.96
-4.44
-3.85
-3.21
-2.54
-1.89
-1.33
-0.95
-0.78
-0.78
-0.86
-0.94
-0.96
-0.93
-0.88
-0.85
-0.79
-0.59
-0.14
0.72
2.05
3.86
6.06
8.45
10.71
12.51
13.55
13.66
12.85
11.31
9.27
6.95
4.39
1.63
-1.24
-4.03
-6.44
-8.22
-9.23
-9.53
-9.33
-8.89
-8.38
-7.88
-7.41
-6.98
-6.60
-6.32
-6.11
-5.95
-5.75
-5.49
-5.20
-5.01
-5.04
-5.34
-5.78
-6.09
-5.90
-4.92
-3.07
-0.53
2.29
4.89
6.86
7.96
8.19
7.69
6.63
5.17
3.43
1.53
-0.41
-2.24
-3.82
-5.01
-5.74
-5.98
-5.78
-5.27
-4.62
-4.00
-3.52
-3.24
-3.09
-2.97
-2.78
-2.50
-2.14
-1.79
-1.53
-1.44
-1.60
-2.07
-2.90
-3.98
-5.05
-5.71
-5.48
-3.95
-1.01
3.10
7.88
12.64
16.81
20.00
22.03
22.91
22.69
21.44
19.27
16.33
12.86
9.16
5.51
2.14
-0.79
-3.20
-5.10
-6.54
-7.60
-8.35
-8.82
-9.06
-9.08
-8.93
-8.73
-8.61
-8.73
-9.18
-9.98
-11.09
-12.46
-14.06
-15.85
-17.72
-19.43
-20.58
-20.69
-19.37
-16.49
-12.20
-6.97
-1.42
3.84
8.33
11.79
14.14
15.42
15.72
15.12
13.69
11.54
8.81
5.74
2.57
-0.39
-2.96
-5.01
-6.51
-7.51
-8.04
-8.14
-7.85
-7.26
-6.53
-5.86
-5.45
-5.43
-5.83
-6.63
-7.81
-9.35
-11.17
-13.04
-14.57
-15.23
-14.55
-12.27
-8.52
-3.72
1.51
6.60
11.15
14.96
18.01
20.33
21.90
22.72
22.76
22.03
20.63
18.75
16.65
14.60
12.84
11.50
10.54
9.79
9.06
8.16
7.04
5.77
4.47
3.26
2.16
1.13
0.08
-1.07
-2.37
-3.90
-5.71
-7.84
-10.23
-12.64
-14.65
-15.76
-15.52
-13.76
-10.58
-6.34
-1.51
3.42
8.04
12.00
15.07
17.06
17.90
17.63
16.40
14.40
11.88
9.09
6.33
3.90
2.03
0.78
-0.00
-0.59
-1.24
-2.04
-2.89
-3.56
-3.91
-3.95
-3.90
-4.05
-4.62
-5.72
-7.32
-9.34
-11.66
-14.10
-16.35
-17.94
-18.37
-17.26
-14.49
-10.27
-5.12
0.34
5.52
9.98
13.48
15.92
17.33
17.78
17.35
16.12
14.22
11.82
9.11
6.37
3.87
1.83
0.32
-0.70
-1.38
-1.92
-2.48
-3.14
-3.90
-4.70
-5.42
-5.99
-6.38
-6.67
-7.06
-7.78
-8.99
-10.76
-12.93
-15.22
-17.21
-18.50
-18.71
-17.60
-15.07
-11.18
-6.25
-0.77
4.69
9.56
13.48
16.28
17.96
18.59
18.24
16.98
14.91
12.22
9.22
6.24
3.60
1.49
-0.05
-1.11
-1.84
-2.36
-2.78
-3.10
-3.35
-3.58
-3.86
-4.33
-5.11
-6.32
-8.00
-10.11
-12.51
-14.93
-17.01
-18.28
-18.35
-16.93
-14.01
-9.86
-4.93
0.22
5.11
9.41
12.91
15.53
17.21
17.93
17.70
16.60
14.80
12.51
9.98
7.43
5.05
2.95
1.24
-0.05
-0.93
-1.53
-1.99
-2.48
-3.11
-3.88
-4.70
-5.48
-6.23
-7.01
-8.01
-9.33
-11.00
-12.89
-14.73
-16.16
-16.76
-16.20
-14.30
-11.10
-6.87
-2.07
2.84
7.51
11.69
15.25
18.04
19.89
20.61
20.09
18.42
15.87
12.81
9.64
6.69
4.22
2.39
1.21
0.59
0.27
-0.04
-0.55
-1.36
-2.35
-3.32
-4.13
-4.72
-5.23
-5.88
-6.92
-8.52
-10.73
-13.40
-16.22
-18.67
-20.15
-20.16
-18.42
-15.00
-10.28
-4.83
0.77
6.04
10.64
14.35
17.00
18.51
18.91
18.37
17.13
15.47
13.60
11.61
9.54
7.42
5.35
3.45
1.86
0.63
-0.26
-0.87
-1.29
-1.56
-1.73
-1.84
-2.00
-2.35
-3.04
-4.16
-5.75
-7.79
-10.20
-12.87
-15.57
-17.97
-19.63
-20.12
-19.12
-16.53
-12.53
-7.51
-1.97
3.56
8.64
12.92
16.18
18.29
19.26
19.17
18.19
16.54
14.45
12.17
9.90
7.80
5.94
4.35
3.00
1.85
0.83
-0.07
-0.87
-1.56
-2.14
-2.64
-3.08
-3.54
-4.12
-4.95
-6.15
-7.79
-9.85
-12.22
-14.67
-16.89
-18.48
-19.06
-18.32
-16.12
-12.54
-7.86
-2.53
2.93
8.04
12.43
15.82
18.09
19.20
19.21
18.27
16.55
14.26
11.60
8.80
6.11
3.76
1.93
0.63
-0.20
-0.75
-1.18
-1.61
-2.07
-2.58
-3.14
-3.78
-4.50
-5.28
-6.07
-6.88
-7.77
-8.96
-10.63
-12.85
-15.43
-17.90
-19.58
-19.87
-18.38
-15.10
-10.39
-4.86
0.82
6.06
10.47
13.90
16.33
17.84
18.52
18.42
17.59
16.12
14.18
11.96
9.68
7.48
5.44
3.59
1.97
0.62
-0.42
-1.17
-1.68
-2.07
-2.43
-2.84
-3.32
-3.85
-4.48
-5.25
-6.29
-7.68
-9.49
-11.70
-14.15
-16.57
-18.57
-19.66
-19.42
-17.57
-14.11
-9.34
-3.82
1.81
6.97
11.29
14.61
16.94
18.34
18.84
18.48
17.30
15.43
13.13
10.68
8.35
6.31
4.62
3.24
2.12
1.20
0.44
-0.21
-0.82
-1.47
-2.16
-2.89
-3.57
-4.20
-4.80
-5.50
-6.45
-7.79
-9.56
-11.75
-14.24
-16.78
-19.00
-20.41
-20.49
-18.85
-15.40
-10.48
-4.77
0.90
5.88
9.82
12.77
14.93
16.50
17.51
17.84
17.33
15.92
13.73
11.03
8.12
5.30
2.81
0.81
-0.61
-1.47
-1.87
-1.99
-2.02
-2.10
-2.35
-2.81
-3.49
-4.34
-5.28
-6.19
-7.02
-7.82
-8.77
-10.15
-12.10
-14.44
-16.67
-18.08
-17.98
-16.03
-12.33
-7.35
-1.72
3.93
9.17
13.71
17.36
19.98
21.42
21.63
20.69
18.83
16.37
13.71
11.13
8.82
6.81
5.04
3.43
1.92
0.54
-0.64
-1.57
-2.22
-2.68
-3.09
-3.58
-4.24
-5.09
-6.13
-7.33
-8.73
-10.38
-12.31
-14.44
-16.51
-18.14
-18.83
-18.21
-16.07
-12.49
-7.82
-2.59
2.62
7.32
11.22
14.19
16.24
17.44
17.82
17.41
16.26
14.49
12.36
10.14
8.09
6.36
4.92
3.66
2.45
1.22
0.02
-1.07
-1.94
-2.58
-3.06
-3.50
-4.03
-4.70
-5.57
-6.65
-8.00
-9.70
-11.78
-14.15
-16.48
-18.28
-18.94
-18.00
-15.30
-11.08
-5.90
-0.46
4.62
8.98
12.53
15.31
17.34
18.55
18.80
17.98
16.16
13.64
10.83
8.12
5.76
3.81
2.16
0.66
-0.78
-2.17
-3.43
-4.44
-5.13
-5.51
-5.69
-5.90
-6.34
-7.20
-8.52
-10.24
-12.24
-14.37
-16.49
-18.39
-19.74
-20.13
-19.17
-16.62
-12.57
-7.42
-1.79
3.66
8.41
12.20
14.97
16.78
17.69
17.73
16.90
15.27
12.99
10.34
7.64
5.15
3.03
1.33
-0.05
-1.20
-2.21
-3.11
-3.88
-4.47
-4.86
-5.07
-5.19
-5.44
-6.04
-7.22
-9.04
-11.42
-14.01
-16.34
-17.89
-18.22
-17.11
-14.51
-10.63
-5.79
-0.39
5.10
10.26
14.68
18.08
20.31
21.33
21.22
20.10
18.15
15.56
12.59
9.54
6.70
4.28
2.35
0.85
-0.30
-1.20
-1.89
-2.38
-2.70
-2.95
-3.29
-3.84
-4.68
-5.83
-7.26
-9.00
-11.08
-13.46
-15.94
-18.10
-19.37
-19.18
-17.22
-13.49
-8.38
-2.51
3.45
8.92
13.51
17.02
19.40
20.70
21.01
20.45
19.19
17.37
15.16
12.73
10.23
7.84
5.67
3.81
2.28
1.09
0.18
-0.51
-1.06
-1.55
-2.03
-2.55
-3.15
-3.88
-4.83
-6.10
-7.80
-9.96
-12.52
-15.30
-17.99
-20.20
-21.45
-21.30
-19.40
-15.69
-10.47
-4.32
1.97
7.72
12.50
16.17
18.83
20.59
21.53
21.65
20.94
19.50
17.50
15.15
12.62
10.06
7.56
5.29
3.40
2.05
1.28
1.00
1.01
1.12
1.09
0.78
0.07
-1.03
-2.45
-4.01
-5.49
-6.74
-7.72
-8.61
-9.71
-11.32
-13.63
-16.51
-19.54
-22.01
-23.15
-22.36
-19.43
-14.59
-8.48
-1.87
4.52
10.20
14.89
18.49
20.89
22.06
22.02
20.94
19.13
16.95
14.66
12.42
10.25
8.12
6.02
4.06
2.39
1.11
0.27
-0.20
-0.44
-0.61
-0.85
-1.25
-1.86
-2.69
-3.72
-4.98
-6.53
-8.51
-11.06
-14.23
-17.87
-21.61
-24.80
-26.73
-26.80
-24.70
-20.54
-14.84
-8.32
-1.72
4.36
9.54
13.67
16.68
18.56
19.29
18.96
17.74
15.94
13.95
12.10
10.60
9.49
8.71
8.13
7.68
7.30
6.99
6.74
6.48
6.12
5.53
4.61
3.32
1.75
0.08
-1.49
-2.82
-3.88
-4.80
-5.80
-7.10
-8.80
-10.75
-12.61
-13.85
-13.94
-12.49
-9.42
-5.01
0.21
5.57
10.49
14.58
17.63
19.64
20.63
20.69
19.90
18.40
16.35
13.96
11.43
8.93
6.63
4.61
2.89
1.40
0.04
-1.28
-2.56
-3.70
-4.51
-4.89
-4.89
-4.74
-4.75
-5.22
-6.30
-7.95
-9.99
-12.18
-14.30
-16.12
-17.44
-18.02
-17.60
-16.01
-13.21
-9.34
-4.79
-0.06
4.35
8.05
10.83
12.62
13.45
13.36
12.43
10.77
8.55
6.06
3.59
1.40
-0.36
-1.73
-2.85
-3.90
-4.99
-6.11
-7.11
-7.83
-8.12
-8.05
-7.81
-7.73
-8.14
-9.19
-10.85
-12.91
-15.04
-16.87
-18.02
-18.15
-17.01
-14.50
-10.74
-6.06
-0.95
4.03
8.44
12.02
14.63
16.26
16.91
16.57
15.32
13.34
10.91
8.39
6.03
3.97
2.16
0.50
-1.10
-2.61
-3.90
-4.86
-5.42
-5.63
-5.67
-5.76
-6.12
-6.93
-8.29
-10.22
-12.58
-15.06
-17.16
-18.30
-17.96
-15.88
-12.17
-7.28
-1.87
3.38
8.01
11.78
14.66
16.68
17.85
18.16
17.58
16.18
14.12
11.68
9.14
6.69
4.46
2.48
0.76
-0.72
-1.93
-2.84
-3.45
-3.80
-4.02
-4.27
-4.76
-5.66
-7.07
-9.02
-11.40
-14.00
-16.48
-18.41
-19.36
-18.96
-17.07
-13.80
-9.45
-4.51
0.58
5.45
9.87
13.71
16.81
19.02
20.16
20.13
18.92
16.75
13.93
10.88
7.96
5.46
3.48
1.98
0.85
-0.10
-0.98
-1.84
-2.69
-3.49
-4.21
-4.84
-5.40
-5.98
-6.72
-7.84
-9.46
-11.65
-14.19
-16.65
-18.42
-18.91
-17.71
-14.76
-10.31
-4.86
1.00
6.72
11.86
16.09
19.21
21.09
21.70
21.13
19.60
17.38
14.82
12.22
9.79
7.65
5.84
4.33
3.11
2.21
1.64
1.40
1.36
1.34
1.12
0.52
-0.49
-1.86
-3.44
-5.09
-6.75
-8.43
-10.21
-12.21
-14.45
-16.89
-19.30
-21.29
-22.33
-21.94
-19.83
-16.00
-10.81
-4.81
1.33
7.08
12.05
16.02
18.90
20.67
21.38
21.14
20.09
18.42
16.29
13.87
11.32
8.86
6.66
4.90
3.66
2.93
2.56
2.34
2.06
1.59
0.91
0.09
-0.83
-1.84
-2.96
-4.24
-5.72
-7.40
-9.27
-11.33
-13.59
-15.95
-18.17
-19.75
-20.15
-18.90
-15.85
-11.23
-5.62
0.28
5.84
10.66
14.54
17.43
19.32
20.20
20.07
19.00
17.13
14.73
12.07
9.43
6.98
4.81
2.91
1.24
-0.22
-1.44
-2.38
-2.98
-3.25
-3.30
-3.32
-3.50
-3.99
-4.85
-6.06
-7.59
-9.41
-11.53
-13.94
-16.46
-18.73
-20.24
-20.44
-18.93
-15.64
-10.88
-5.23
0.61
6.06
10.73
14.43
17.08
18.66
19.14
18.57
17.08
14.97
12.58
10.23
8.13
6.38
4.90
3.58
2.29
0.96
-0.41
-1.74
-2.87
-3.67
-4.10
-4.25
-4.30
-4.52
-5.10
-6.19
-7.82
-10.00
-12.59
-15.31
-17.66
-18.98
-18.64
-16.28
-12.02
-6.44
-0.39
5.29
10.04
13.66
16.21
17.85
18.72
18.84
18.16
16.69
14.52
11.88
9.08
6.42
4.11
2.24
0.78
-0.36
-1.27
-2.04
-2.72
-3.39
-4.08
-4.86
-5.75
-6.73
-7.78
-8.93
-10.23
-11.86
-13.96
-16.58
-19.58
-22.55
-24.89
-25.94
-25.19
-22.48
-18.04
-12.42
-6.26
-0.15
5.49
10.44
14.53
17.69
19.81
20.87
20.94
20.18
18.83
17.15
15.36
13.64
12.08
10.69
9.40
8.15
6.89
5.67
4.60
3.78
3.23
2.83
2.36
1.56
0.31
-1.38
-3.39
-5.55
-7.78
-10.11
-12.56
-15.01
-17.14
-18.41
-18.24
-16.23
-12.41
-7.23
-1.43
4.24
9.26
13.38
16.58
18.89
20.30
20.73
20.11
18.52
16.17
13.41
10.59
8.01
5.88
4.24
3.08
2.29
1.75
1.31
0.86
0.34
-0.25
-0.92
-1.69
-2.58
-3.61
-4.76
-6.04
-7.48
-9.20
-11.34
-13.90
-16.71
-19.27
-20.88
-20.92
-19.06
-15.48
-10.75
-5.63
-0.77
3.49
7.06
10.01
12.29
13.77
14.27
13.67
12.05
9.64
6.75
3.66
0.58
-2.33
-4.87
-6.87
-8.22
-8.93
-9.15
-9.15
-9.16
-9.31
-9.63
-9.98
-10.21
-10.20
-9.85
-9.17
-8.22
-7.06
-5.76
-4.22
-2.27
0.41
4.07
8.83
14.55
20.78
26.85
31.98
35.52
36.98
36.16
33.09
28.00
21.19
13.04
3.94
-5.63
-15.18
-24.22
-32.28
-39.01
-44.15
-47.58
-49.29
-49.39
-48.10
-45.72
-42.56
-39.00
-35.37
-31.96
-29.06
-26.84
-25.44
-24.92
-25.25
-26.33
-27.96
-29.81
-31.41
-32.21
-31.65
-29.31
-25.03
-18.96
-11.51
-3.25
5.23
13.39
20.80
27.15
32.21
35.87
38.15
39.17
39.14
38.33
37.01
35.44
33.85
32.40
31.18
30.17
29.22
28.11
26.60
24.53
21.90
18.87
15.68
12.59
9.80
7.34
5.12
2.86
0.18
-3.31
-7.90
-13.55
-19.85
-25.99
-31.01
-34.07
-34.76
-33.22
-30.14
-26.45
-23.06
-20.59
-19.26
-18.93
-19.25
-19.79
-20.21
-20.30
-19.97
-19.21
-18.04
-16.42
-14.18
-11.05
-6.70
-0.89
6.38
14.79
23.82
32.82
41.26
48.68
54.75
59.12
61.47
61.63
59.68
56.02
51.27
46.03
40.67
35.31
29.88
24.41
19.15
14.58
11.20
9.31
8.83
9.35
10.32
11.31
12.15
12.93
13.84
14.94
16.04
16.80
16.80
15.84
13.96
11.47
8.73
6.08
3.76
1.97
0.88
0.62
1.18
2.36
3.73
4.82
5.20
4.71
3.44
1.64
-0.36
-2.36
-4.24
-6.03
-7.76
-9.43
-10.93
-12.01
-12.34
-11.68
-9.90
-7.09
-3.55
0.37
4.30
7.96
11.13
13.62
15.25
15.85
15.32
13.71
11.24
8.24
5.09
2.14
-0.39
-2.40
-3.90
-4.96
-5.73
-6.31
-6.82
-7.33
-7.84
-8.31
-8.67
-8.89
-8.98
-9.05
-9.26
-9.78
-10.70
-12.01
-13.56
-15.05
-16.04
-16.12
-14.93
-12.38
-8.66
-4.20
0.39
4.60
8.07
10.67
12.42
13.36
13.46
12.70
11.08
8.77
6.08
3.42
1.16
-0.48
-1.47
-1.98
-2.29
-2.64
-3.16
-3.78
-4.30
-4.52
-4.38
-4.00
-3.70
-3.82
-4.56
-5.93
-7.73
-9.65
-11.35
-12.51
-12.80
-11.93
-9.74
-6.24
-1.72
3.27
8.12
12.26
15.34
17.26
18.12
18.11
17.48
16.43
15.12
13.62
11.96
10.11
8.10
6.00
3.94
2.06
0.39
-1.11
-2.54
-3.99
-5.50
-7.05
-8.62
-10.27
-12.09
-14.17
-16.55
-19.20
-22.01
-24.90
-27.80
-30.65
-33.40
-35.85
-37.78
-38.89
-38.98
-38.04
-36.30
-34.11
-31.88
-29.87
-28.15
-26.67
-25.26
-23.82
-22.37
-20.96
-19.69
-18.62
-17.77
-17.19
-16.91
-16.98
-17.32
-17.74
-17.91
-17.54
-16.46
-14.71
-12.52
-10.23
-8.21
-6.73
-5.96
-5.95
-6.65
-7.86
-9.28
-10.45
-10.89
-10.19
-8.11
-4.70
-0.22
4.87
10.10
15.06
19.47
23.12
25.88
27.62
28.21
27.63
25.98
23.52
20.62
17.65
14.88
12.42
10.26
8.31
6.52
4.87
3.44
2.29
1.44
0.81
0.23
-0.48
-1.51
-3.00
-4.96
-7.34
-9.92
-12.33
-14.08
-14.70
-13.81
-11.29
-7.29
-2.26
3.23
8.62
13.50
17.64
20.96
23.43
24.99
25.57
25.09
23.58
21.20
18.25
15.10
12.05
9.30
6.91
4.87
3.12
1.65
0.47
-0.42
-1.03
-1.49
-1.95
-2.61
-3.62
-5.02
-6.80
-8.85
-10.99
-12.98
-14.48
-15.11
-14.53
-12.52
-9.13
-4.64
0.50
5.83
10.92
15.48
19.23
21.92
23.32
23.32
22.00
19.64
16.69
13.58
10.63
7.99
5.68
3.63
1.77
0.01
-1.65
-3.19
-4.55
-5.61
-6.32
-6.75
-7.08
-7.61
-8.64
-10.34
-12.64
-15.18
-17.37
-18.53
-18.13
-15.91
-11.97
-6.74
-0.82
5.16
10.71
15.48
19.26
21.90
23.32
23.47
22.41
20.32
17.52
14.39
11.26
8.31
5.63
3.16
0.88
-1.17
-2.87
-4.07
-4.70
-4.88
-4.88
-5.07
-5.79
-7.22
-9.38
-12.06
-14.93
-17.51
-19.27
-19.66
-18.29
-15.02
-10.10
-4.05
2.40
8.60
14.05
18.46
21.74
23.82
24.66
24.21
22.52
19.83
16.52
13.05
9.81
7.04
4.74
2.77
0.97
-0.74
-2.29
-3.55
-4.44
-4.99
-5.43
-6.06
-7.15
-8.84
-11.08
-13.65
-16.22
-18.34
-19.55
-19.41
-17.65
-14.20
-9.31
-3.45
2.79
8.85
14.33
18.94
22.46
24.69
25.45
24.71
22.62
19.58
16.12
12.74
9.74
7.24
5.13
3.29
1.65
0.22
-0.94
-1.77
-2.33
-2.74
-3.16
-3.78
-4.72
-6.09
-7.94
-10.26
-12.96
-15.76
-18.19
-19.65
-19.51
-17.38
-13.28
-7.61
-1.13
5.36
11.24
16.15
19.98
22.71
24.26
24.55
23.52
21.28
18.19
14.76
11.45
8.61
6.31
4.48
2.94
1.57
0.30
-0.85
-1.86
-2.70
-3.38
-3.97
-4.55
-5.25
-6.18
-7.48
-9.24
-11.49
-14.13
-16.89
-19.32
-20.85
-20.92
-19.16
-15.55
-10.39
-4.26
2.13
8.12
13.21
17.11
19.70
21.04
21.23
20.46
18.89
16.69
14.07
11.25
8.48
6.00
4.00
2.58
1.71
1.24
0.98
0.70
0.26
-0.40
-1.26
-2.21
-3.15
-4.10
-5.13
-6.43
-8.20
-10.50
-13.29
-16.26
-18.95
-20.81
-21.34
-20.21
-17.38
-13.08
-7.73
-1.89
3.93
9.30
13.91
17.51
19.94
21.10
21.01
19.83
17.83
15.32
12.61
9.96
7.54
5.50
3.90
2.73
1.93
1.39
1.02
0.76
0.57
0.36
0.02
-0.62
-1.69
-3.19
-5.02
-7.02
-9.05
-11.11
-13.27
-15.62
-18.07
-20.31
-21.84
-22.11
-20.71
-17.51
-12.75
-6.93
-0.68
5.38
10.78
15.22
18.57
20.78
21.82
21.73
20.61
18.70
16.29
13.72
11.26
9.05
7.11
5.46
4.08
3.01
2.29
1.91
1.75
1.64
1.42
0.93
0.13
-0.98
-2.34
-3.89
-5.56
-7.27
-8.96
-10.61
-12.32
-14.24
-16.52
-19.15
-21.84
-24.04
-25.06
-24.31
-21.56
-16.97
-11.07
-4.53
2.00
8.02
13.21
17.32
20.18
21.73
22.02
21.25
19.74
17.82
15.74
13.65
11.64
9.74
8.00
6.52
5.35
4.54
4.06
3.82
3.74
3.71
3.67
3.55
3.28
2.74
1.88
0.63
-0.99
-2.91
-4.98
-7.04
-8.98
-10.74
-12.37
-13.99
-15.79
-17.90
-20.32
-22.83
-24.97
-26.15
-25.84
-23.72
-19.83
-14.54
-8.41
-2.01
4.15
9.73
14.42
17.96
20.12
20.79
20.10
18.40
16.18
13.90
11.85
10.11
8.57
7.12
5.68
4.28
3.03
2.06
1.46
1.25
1.37
1.65
1.89
1.88
1.48
0.66
-0.51
-1.89
-3.37
-4.91
-6.48
-8.06
-9.63
-11.22
-12.87
-14.75
-16.94
-19.41
-21.82
-23.64
-24.24
-23.12
-20.10
-15.40
-9.55
-3.23
2.89
8.27
12.59
15.66
17.48
18.13
17.77
16.63
14.97
13.04
11.04
9.11
7.29
5.57
3.94
2.40
1.04
-0.07
-0.85
-1.29
-1.47
-1.52
-1.64
-1.97
-2.61
-3.54
-4.69
-5.93
-7.18
-8.44
-9.82
-11.46
-13.45
-15.70
-17.92
-19.66
-20.41
-19.76
-17.54
-13.85
-9.04
-3.60
1.93
7.08
11.46
14.83
17.07
18.16
18.17
17.30
15.78
13.84
11.68
9.45
7.22
5.07
3.09
1.45
0.26
-0.39
-0.56
-0.46
-0.36
-0.50
-1.03
-1.92
-3.07
-4.32
-5.56
-6.78
-8.01
-9.34
-10.85
-12.64
-14.75
-17.09
-19.41
-21.22
-21.95
-21.13
-18.52
-14.28
-8.88
-2.97
2.84
8.06
12.42
15.77
18.03
19.23
19.41
18.73
17.42
15.72
13.79
11.73
9.59
7.40
5.27
3.35
1.83
0.82
0.30
0.14
0.07
-0.16
-0.77
-1.78
-3.12
-4.57
-5.97
-7.23
-8.38
-9.58
-11.02
-12.90
-15.27
-18.00
-20.69
-22.79
-23.68
-22.84
-20.06
-15.50
-9.67
-3.29
2.94
8.54
13.24
16.94
19.61
21.21
21.67
21.02
19.40
17.12
14.54
12.03
9.80
7.92
6.33
4.94
3.71
2.70
1.98
1.57
1.40
1.30
1.00
0.33
-0.79
-2.25
-3.86
-5.41
-6.77
-7.93
-9.00
-10.17
-11.64
-13.59
-16.06
-18.94
-21.85
-24.25
-25.50
-25.10
-22.81
-18.75
-13.32
-7.11
-0.67
5.54
11.18
15.97
19.66
22.06
23.08
22.81
21.51
19.55
17.27
14.94
12.70
10.60
8.65
6.87
5.30
4.02
3.04
2.34
1.85
1.44
0.99
0.40
-0.36
-1.31
-2.41
-3.64
-4.98
-6.42
-7.97
-9.64
-11.51
-13.62
-15.97
-18.37
-20.45
-21.64
-21.37
-19.25
-15.29
-9.87
-3.65
2.60
8.28
13.02
16.66
19.23
20.80
21.40
21.12
20.03
18.28
16.01
13.43
10.70
8.03
5.60
3.57
2.04
0.98
0.25
-0.35
-0.98
-1.71
-2.49
-3.26
-3.98
-4.70
-5.48
-6.41
-7.50
-8.78
-10.31
-12.17
-14.39
-16.80
-18.96
-20.28
-20.21
-18.41
-14.93
-10.18
-4.73
0.83
6.01
10.48
14.07
16.67
18.25
18.83
18.46
17.23
15.31
12.91
10.29
7.72
5.40
3.41
1.76
0.38
-0.74
-1.59
-2.17
-2.50
-2.72
-3.04
-3.63
-4.53
-5.66
-6.89
-8.12
-9.43
-11.01
-13.02
-15.39
-17.74
-19.45
-19.82
-18.45
-15.31
-10.78
-5.47
0.02
5.22
9.88
13.80
16.83
18.79
19.61
19.32
18.15
16.36
14.23
11.93
9.55
7.16
4.84
2.70
0.81
-0.78
-2.09
-3.15
-3.95
-4.50
-4.82
-5.04
-5.32
-5.85
-6.74
-8.01
-9.62
-11.53
-13.68
-15.99
-18.20
-19.93
-20.61
-19.75
-17.07
-12.67
-7.01
-0.78
5.31
10.67
14.97
18.10
20.07
20.94
20.81
19.80
18.06
15.81
13.27
10.66
8.18
5.93
3.98
2.33
0.98
-0.10
-0.97
-1.64
-2.16
-2.59
-3.03
-3.62
-4.48
-5.66
-7.17
-8.96
-10.98
-13.18
-15.51
-17.80
-19.72
-20.80
-20.60
-18.79
-15.37
-10.64
-5.08
0.76
6.45
11.64
16.08
19.53
21.78
22.68
22.27
20.75
18.45
15.79
13.08
10.58
8.40
6.56
5.04
3.78
2.76
1.99
1.44
1.06
0.73
0.26
-0.47
-1.53
-2.86
-4.31
-5.72
-6.98
-8.11
-9.22
-10.52
-12.25
-14.58
-17.46
-20.60
-23.40
-25.10
-24.98
-22.68
-18.36
-12.55
-6.04
0.45
6.42
11.65
16.03
19.44
21.74
22.80
22.62
21.40
19.50
17.28
15.01
12.79
10.60
8.41
6.26
4.33
2.82
1.90
1.58
1.69
1.96
2.09
1.86
1.19
0.10
-1.31
-2.91
-4.60
-6.32
-8.07
-9.91
-11.96
-14.28
-16.84
-19.36
-21.36
-22.23
-21.46
-18.82
-14.45
-8.84
-2.65
3.48
9.09
13.90
17.77
20.62
22.38
23.02
22.58
21.18
19.08
16.59
14.03
11.66
9.58
7.83
6.34
5.12
4.16
3.51
3.17
3.05
3.00
2.84
2.40
1.63
0.54
-0.81
-2.29
-3.80
-5.24
-6.60
-7.94
-9.40
-11.13
-13.27
-15.81
-18.63
-21.45
-23.86
-25.32
-25.35
-23.61
-20.04
-14.98
-8.99
-2.76
3.15
8.37
12.79
16.36
19.05
20.77
21.46
21.07
19.68
17.44
14.59
11.44
8.32
5.56
3.41
1.96
1.17
0.87
0.83
0.84
0.69
0.26
-0.51
-1.59
-2.86
-4.09
-5.09
-5.81
-6.34
-6.95
-7.95
-9.56
-11.83
-14.61
-17.53
-20.08
-21.73
-21.98
-20.51
-17.26
-12.47
-6.65
-0.46
5.45
10.53
14.47
17.17
18.70
19.26
19.03
18.11
16.58
14.50
12.00
9.32
6.76
4.52
2.70
1.24
0.02
-1.05
-1.96
-2.65
-3.08
-3.26
-3.37
-3.58
-4.08
-4.98
-6.34
-8.22
-10.60
-13.38
-16.32
-18.96
-20.72
-21.03
-19.50
-16.12
-11.23
-5.48
0.42
5.86
10.52
14.30
17.25
19.41
20.73
21.10
20.41
18.71
16.22
13.29
10.27
7.46
5.01
2.99
1.41
0.28
-0.39
-0.66
-0.63
-0.51
-0.55
-0.96
-1.81
-3.07
-4.58
-6.23
-7.95
-9.83
-11.98
-14.48
-17.18
-19.67
-21.38
-21.73
-20.35
-17.19
-12.52
-6.83
-0.74
5.20
10.54
14.96
18.29
20.47
21.51
21.49
20.50
18.70
16.31
13.58
10.83
8.33
6.29
4.78
3.73
2.98
2.34
1.66
0.84
-0.12
-1.13
-2.12
-3.02
-3.82
-4.61
-5.48
-6.54
-7.88
-9.58
-11.73
-14.39
-17.41
-20.42
-22.75
-23.61
-22.43
-19.06
-13.87
-7.59
-1.07
5.03
10.31
14.65
17.97
20.24
21.38
21.40
20.41
18.64
16.40
13.96
11.52
9.23
7.14
5.29
3.73
2.49
1.61
1.07
0.81
0.66
0.46
0.02
-0.73
-1.77
-3.04
-4.43
-5.94
-7.62
-9.61
-11.98
-14.67
-17.44
-19.84
-21.34
-21.44
-19.82
-16.46
-11.63
-5.85
0.25
6.07
11.13
15.15
18.01
19.75
20.43
20.11
18.88
16.88
14.31
11.53
8.88
6.67
5.04
3.96
3.27
2.78
2.34
1.85
1.25
0.52
-0.32
-1.25
-2.19
-3.06
-3.88
-4.72
-5.76
-7.20
-9.17
-11.65
-14.42
-17.09
-19.11
-19.95
-19.19
-16.68
-12.57
-7.36
-1.67
3.88
8.82
12.87
15.94
17.98
18.95
18.87
17.81
15.95
13.55
10.91
8.30
5.90
3.82
2.13
0.83
-0.13
-0.84
-1.45
-2.08
-2.82
-3.68
-4.64
-5.62
-6.55
-7.42
-8.30
-9.34
-10.73
-12.61
-14.97
-17.53
-19.79
-21.11
-20.93
-18.93
-15.19
-10.11
-4.29
1.67
7.23
12.00
15.69
18.15
19.32
19.29
18.25
16.47
14.22
11.71
9.12
6.61
4.31
2.35
0.83
-0.27
-1.06
-1.69
-2.28
-2.90
-3.52
-4.11
-4.69
-5.33
-6.20
-7.49
-9.35
-11.78
-14.58
-17.32
-19.41
-20.21
-19.27
-16.49
-12.13
-6.78
-1.11
4.32
9.15
13.22
16.47
18.81
20.12
20.29
19.33
17.44
14.94
12.23
9.65
7.41
5.57
4.10
2.88
1.81
0.86
0.00
-0.77
-1.51
-2.28
-3.16
-4.19
-5.34
-6.57
-7.88
-9.34
-11.07
-13.14
-15.50
-17.85
-19.73
-20.57
-19.90
-17.54
-13.60
-8.49
-2.76
3.05
8.45
13.14
16.88
19.54
21.05
21.40
20.69
19.10
16.89
14.32
11.72
9.32
7.31
5.75
4.60
3.76
3.08
2.46
1.81
1.08
0.22
-0.81
-2.02
-3.38
-4.77
-6.08
-7.27
-8.48
-9.93
-11.87
-14.40
-17.30
-20.08
-22.08
-22.67
-21.44
-18.32
-13.60
-7.78
-1.49
4.68
10.25
14.84
18.20
20.22
20.94
20.54
19.34
17.67
15.80
13.88
11.95
10.02
8.14
6.41
4.95
3.79
2.88
2.07
1.24
0.32
-0.66
-1.61
-2.50
-3.34
-4.17
-5.05
-6.04
-7.19
-8.59
-10.36
-12.61
-15.28
-18.09
-20.57
-22.17
-22.36
-20.87
-17.67
-13.04
-7.39
-1.23
4.94
10.66
15.52
19.17
21.40
22.14
21.57
19.99
17.84
15.47
13.13
10.92
8.85
6.92
5.22
3.87
2.96
2.48
2.27
2.05
1.60
0.79
-0.36
-1.68
-3.00
-4.18
-5.19
-6.06
-6.91
-7.89
-9.15
-10.86
-13.10
-15.77
-18.56
-20.94
-22.28
-22.02
-19.83
-15.78
-10.26
-3.94
2.48
8.39
13.37
17.18
19.71
20.98
21.08
20.20
18.62
16.66
14.57
12.55
10.64
8.81
7.00
5.21
3.48
1.93
0.65
-0.32
-1.03
-1.54
-1.93
-2.29
-2.66
-3.09
-3.66
-4.46
-5.58
-7.11
-9.11
-11.55
-14.26
-16.96
-19.21
-20.55
-20.54
-18.92
-15.69
-11.16
-5.88
-0.47
4.54
8.75
12.06
14.48
16.12
17.06
17.27
16.72
15.38
13.33
10.79
8.05
5.43
3.19
1.44
0.14
-0.78
-1.44
-1.92
-2.22
-2.41
-2.59
-2.90
-3.49
-4.45
-5.74
-7.24
-8.87
-10.64
-12.63
-14.88
-17.25
-19.33
-20.57
-20.41
-18.57
-15.08
-10.36
-4.99
0.45
5.50
9.87
13.42
16.08
17.78
18.47
18.11
16.77
14.63
11.98
9.17
6.56
4.41
2.82
1.76
1.05
0.47
-0.18
-1.00
-1.96
-2.97
-3.91
-4.72
-5.42
-6.09
-6.93
-8.12
-9.78
-11.96
-14.55
-17.28
-19.69
-21.18
-21.20
-19.32
-15.47
-9.97
-3.50
3.12
9.14
14.04
17.59
19.79
20.77
20.68
19.69
17.99
15.81
13.42
11.08
8.92
7.00
5.25
3.60
2.03
0.58
-0.66
-1.60
-2.23
-2.67
-3.06
-3.60
-4.39
-5.45
-6.67
-7.99
-9.38
-10.92
-12.79
-15.05
-17.57
-19.93
-21.50
-21.66
-20.02
-16.58
-11.71
-6.04
-0.18
5.36
10.26
14.34
17.49
19.59
20.55
20.40
19.28
17.45
15.21
12.75
10.21
7.67
5.23
3.06
1.34
0.22
-0.32
-0.45
-0.47
-0.67
-1.23
-2.19
-3.42
-4.79
-6.18
-7.58
-9.06
-10.74
-12.75
-15.08
-17.51
-19.65
-20.94
-20.88
-19.15
-15.75
-10.98
-5.40
0.44
6.02
11.01
15.17
18.37
20.46
21.38
21.11
19.78
17.63
15.01
12.27
9.72
7.55
5.81
4.42
3.25
2.18
1.12
0.06
-0.98
-1.96
-2.88
-3.74
-4.58
-5.44
-6.39
-7.50
-8.88
-10.65
-12.86
-15.44
-18.08
-20.29
-21.41
-20.89
-18.39
-13.98
-8.11
-1.51
5.04
10.89
15.62
19.10
21.30
22.26
22.01
20.63
18.34
15.51
12.60
10.01
7.94
6.30
4.88
3.48
2.02
0.59
-0.66
-1.63
-2.31
-2.82
-3.31
-3.87
-4.55
-5.38
-6.43
-7.79
-9.59
-11.85
-14.47
-17.12
-19.26
-20.34
-19.89
-17.74
-14.06
-9.30
-3.98
1.42
6.54
11.15
15.02
17.85
19.38
19.44
18.13
15.82
13.04
10.28
7.86
5.84
4.13
2.56
1.04
-0.45
-1.84
-3.02
-3.91
-4.50
-4.86
-5.13
-5.49
-6.14
-7.23
-8.86
-11.02
-13.53
-16.06
-18.14
-19.27
-19.08
-17.41
-14.37
-10.26
-5.46
-0.37
4.63
9.26
13.25
16.42
18.62
19.78
19.88
18.95
17.08
14.46
11.43
8.37
5.65
3.48
1.86
0.66
-0.34
-1.27
-2.16
-3.00
-3.76
-4.51
-5.32
-6.31
-7.56
-9.13
-11.05
-13.30
-15.72
-18.03
-19.78
-20.50
-19.81
-17.49
-13.64
-8.57
-2.79
3.13
8.68
13.47
17.27
19.96
21.52
21.95
21.30
19.66
17.25
14.34
11.27
8.37
5.86
3.86
2.40
1.39
0.71
0.23
-0.25
-0.84
-1.63
-2.65
-3.88
-5.30
-6.90
-8.71
-10.71
-12.90
-15.17
-17.33
-19.07
-19.97
-19.61
-17.68
-14.12
-9.19
-3.44
2.50
8.07
12.91
16.87
19.89
21.89
22.75
22.31
20.58
17.78
14.36
10.88
7.90
5.72
4.34
3.52
2.90
2.22
1.37
0.45
-0.41
-1.15
-1.85
-2.66
-3.67
-4.88
-6.22
-7.65
-9.27
-11.29
-13.88
-16.93
-19.97
-22.21
-22.83
-21.29
-17.52
-11.98
-5.45
1.28
7.58
13.06
17.54
20.91
23.08
23.95
23.53
21.95
19.55
16.71
13.80
11.09
8.66
6.53
4.68
3.13
1.90
1.03
0.44
-0.02
-0.52
-1.19
-2.05
-3.01
-3.93
-4.78
-5.66
-6.76
-8.35
-10.58
-13.43
-16.63
-19.67
-21.93
-22.76
-21.73
-18.66
-13.75
-7.57
-0.89
5.53
11.04
15.31
18.30
20.17
21.12
21.26
20.60
19.10
16.76
13.79
10.54
7.43
4.80
2.80
1.40
0.44
-0.23
-0.69
-0.98
-1.12
-1.20
-1.36
-1.75
-2.50
-3.63
-5.13
-6.90
-8.90
-11.11
-13.56
-16.16
-18.68
-20.70
-21.67
-21.07
-18.62
-14.37
-8.74
-2.35
4.11
10.08
15.13
18.99
21.52
22.67
22.51
21.23
19.13
16.54
13.76
11.01
8.46
6.24
4.43
3.04
2.08
1.47
1.08
0.79
0.48
0.05
-0.57
-1.41
-2.47
-3.68
-4.93
-6.15
-7.38
-8.74
-10.42
-12.62
-15.37
-18.51
-21.67
-24.27
-25.66
-25.29
-22.88
-18.48
-12.52
-5.71
1.19
7.51
12.83
16.97
19.93
21.77
22.58
22.42
21.39
19.63
17.32
14.65
11.83
9.08
6.58
4.53
3.03
2.11
1.70
1.66
1.81
1.93
1.83
1.34
0.37
-1.06
-2.81
-4.69
-6.51
-8.18
-9.78
-11.45
-13.40
-15.72
-18.27
-20.67
-22.37
-22.78
-21.49
-18.39
-13.69
-7.84
-1.42
5.02
11.00
16.16
20.19
22.84
24.01
23.78
22.37
20.15
17.54
14.86
12.34
10.07
8.08
6.33
4.84
3.64
2.81
2.38
2.31
2.40
2.40
2.03
1.17
-0.16
-1.79
-3.52
-5.18
-6.75
-8.26
-9.79
-11.46
-13.32
-15.44
-17.83
-20.36
-22.71
-24.36
-24.72
-23.27
-19.84
-14.67
-8.37
-1.74
4.50
9.89
14.25
17.62
20.03
21.49
21.92
21.30
19.74
17.52
15.02
12.60
10.44
8.55
6.83
5.24
3.84
2.81
2.32
2.38
2.80
3.22
3.24
2.61
1.30
-0.48
-2.39
-4.11
-5.47
-6.51
-7.45
-8.59
-10.17
-12.34
-15.12
-18.30
-21.56
-24.36
-26.09
-26.18
-24.30
-20.43
-14.94
-8.42
-1.63
4.78
10.28
14.57
17.53
19.18
19.72
19.39
18.49
17.24
15.75
14.06
12.13
9.96
7.64
5.32
3.20
1.47
0.25
-0.43
-0.64
-0.53
-0.33
-0.31
-0.66
-1.51
-2.86
-4.60
-6.54
-8.47
-10.24
-11.84
-13.40
-15.09
-17.00
-18.97
-20.58
-21.22
-20.37
-17.78
-13.65
-8.48
-2.92
2.47
7.34
11.50
14.86
17.30
18.72
19.06
18.38
16.85
14.70
12.19
9.51
6.88
4.46
2.44
0.91
-0.15
-0.83
-1.32
-1.79
-2.34
-2.98
-3.74
-4.57
-5.47
-6.44
-7.47
-8.60
-9.89
-11.44
-13.35
-15.59
-17.92
-19.88
-20.89
-20.42
-18.18
-14.24
-9.00
-3.10
2.84
8.28
12.89
16.46
18.89
20.12
20.19
19.24
17.55
15.50
13.37
11.35
9.44
7.56
5.66
3.80
2.09
0.65
-0.49
-1.38
-2.11
-2.71
-3.20
-3.57
-3.88
-4.29
-5.02
-6.23
-8.00
-10.29
-12.97
-15.89
-18.81
-21.40
-23.24
-23.85
-22.84
-20.10
-15.78
-10.34
-4.35
1.62
7.13
11.89
15.74
18.57
20.33
21.00
20.67
19.49
17.68
15.48
13.08
10.62
8.22
5.98
4.03
2.51
1.46
0.79
0.33
-0.15
-0.79
-1.63
-2.58
-3.56
-4.52
-5.52
-6.62
-7.91
-9.44
-11.26
-13.42
-15.94
-18.69
-21.30
-23.18
-23.63
-22.14
-18.54
-13.09
-6.44
0.57
7.19
12.82
17.16
20.14
21.81
22.34
21.89
20.61
18.71
16.39
13.91
11.48
9.24
7.24
5.47
3.96
2.72
1.81
1.21
0.79
0.34
-0.33
-1.30
-2.49
-3.73
-4.87
-5.89
-6.90
-8.10
-9.70
-11.84
-14.51
-17.55
-20.54
-22.89
-23.94
-23.14
-20.25
-15.45
-9.30
-2.53
4.17
10.27
15.47
19.60
22.57
24.29
24.76
24.03
22.31
19.89
17.11
14.28
11.65
9.34
7.40
5.79
4.47
3.44
2.69
2.21
1.94
1.72
1.35
0.63
-0.53
-2.03
-3.70
-5.33
-6.78
-8.04
-9.28
-10.75
-12.66
-15.13
-18.04
-21.01
-23.47
-24.75
-24.31
-21.88
-17.58
-11.87
-5.42
1.07
7.01
12.04
16.00
18.87
20.71
21.54
21.40
20.31
18.35
15.73
12.76
9.82
7.24
5.22
3.76
2.71
1.88
1.11
0.34
-0.38
-1.00
-1.47
-1.83
-2.23
-2.81
-3.73
-5.09
-6.91
-9.19
-11.84
-14.68
-17.38
-19.49
-20.50
-19.98
-17.73
-13.91
-8.96
-3.50
1.91
6.85
11.09
14.51
17.06
18.66
19.25
18.81
17.46
15.36
12.77
9.97
7.19
4.68
2.55
0.84
-0.52
-1.64
-2.66
-3.61
-4.46
-5.16
-5.69
-6.16
-6.76
-7.71
-9.16
-11.16
-13.62
-16.34
-18.96
-21.06
-22.16
-21.88
-20.00
-16.58
-11.94
-6.55
-0.91
4.57
9.59
13.95
17.46
19.93
21.22
21.26
20.13
18.09
15.47
12.64
9.87
7.35
5.14
3.21
1.48
-0.11
-1.58
-2.86
-3.85
-4.49
-4.79
-4.91
-5.10
-5.63
-6.74
-8.56
-11.10
-14.20
-17.50
-20.47
-22.45
-22.83
-21.25
-17.75
-12.75
-6.88
-0.78
5.02
10.23
14.68
18.23
20.74
22.06
22.12
21.00
18.93
16.26
13.35
10.51
7.91
5.64
3.69
2.06
0.71
-0.36
-1.19
-1.85
-2.46
-3.14
-3.96
-4.95
-6.14
-7.61
-9.48
-11.83
-14.63
-17.63
-20.35
-22.19
-22.56
-21.07
-17.67
-12.61
-6.45
0.15
6.55
12.24
16.91
20.41
22.72
23.88
23.94
23.01
21.23
18.85
16.12
13.34
10.75
8.55
6.82
5.55
4.60
3.79
2.95
1.96
0.80
-0.45
-1.68
-2.80
-3.82
-4.82
-5.93
-7.28
-8.99
-11.18
-13.90
-17.09
-20.46
-23.48
-25.48
-25.77
-23.92
-19.86
-13.94
-6.83
0.66
7.76
13.91
18.76
22.17
24.17
24.84
24.33
22.80
20.51
17.74
14.83
12.06
9.63
7.60
5.92
4.53
3.43
2.61
2.05
1.69
1.36
0.91
0.20
-0.80
-2.05
-3.48
-5.00
-6.60
-8.32
-10.31
-12.66
-15.41
-18.32
-20.91
-22.51
-22.48
-20.43
-16.42
-10.92
-4.64
1.77
7.83
13.27
17.90
21.51
23.86
24.74
24.15
22.38
19.89
17.17
14.59
12.31
10.32
8.57
7.02
5.70
4.68
3.97
3.55
3.31
3.13
2.88
2.45
1.77
0.76
-0.57
-2.20
-4.01
-5.88
-7.72
-9.48
-11.24
-13.09
-15.21
-17.68
-20.47
-23.37
-25.96
-27.65
-27.84
-26.15
-22.46
-17.07
-10.53
-3.54
3.28
9.46
14.73
18.90
21.83
23.40
23.61
22.59
20.62
18.08
15.35
12.70
10.28
8.13
6.30
4.81
3.69
2.99
2.65
2.54
2.49
2.29
1.82
1.03
-0.03
-1.28
-2.58
-3.89
-5.19
-6.53
-8.03
-9.80
-11.94
-14.44
-17.08
-19.46
-21.02
-21.23
-19.70
-16.41
-11.73
-6.25
-0.63
4.62
9.20
13.03
16.04
18.15
19.24
19.21
18.12
16.17
13.68
10.99
8.34
5.91
3.80
2.08
0.84
0.07
-0.30
-0.45
-0.60
-0.96
-1.70
-2.84
-4.30
-5.90
-7.44
-8.76
-9.85
-10.80
-11.83
-13.17
-14.96
-17.18
-19.57
-21.65
-22.81
-22.45
-20.15
-15.84
-9.90
-3.05
3.84
9.99
14.87
18.29
20.32
21.17
21.07
20.19
18.69
16.70
14.36
11.83
9.30
6.95
4.89
3.17
1.73
0.47
-0.67
-1.70
-2.55
-3.15
-3.54
-3.84
-4.26
-4.95
-5.97
-7.31
-8.99
-11.03
-13.50
-16.34
-19.20
-21.52
-22.62
-21.93
-19.25
-14.81
-9.18
-3.12
2.73
7.93
12.29
15.77
18.40
20.18
21.08
21.06
20.15
18.47
16.23
13.63
10.86
8.09
5.49
3.21
1.39
0.12
-0.65
-1.05
-1.30
-1.63
-2.15
-2.93
-3.98
-5.29
-6.84
-8.61
-10.57
-12.70
-14.97
-17.33
-19.65
-21.65
-22.88
-22.89
-21.31
-18.04
-13.28
-7.50
-1.29
4.73
10.08
14.47
17.78
20.00
21.18
21.30
20.34
18.32
15.42
12.05
8.73
5.97
4.03
2.85
2.12
1.49
0.72
-0.19
-1.15
-2.04
-2.86
-3.67
-4.52
-5.41
-6.31
-7.24
-8.34
-9.84
-11.95
-14.71
-17.86
-20.78
-22.71
-22.99
-21.25
-17.54
-12.29
-6.15
0.22
6.26
11.56
15.83
18.84
20.45
20.69
19.71
17.83
15.40
12.78
10.22
7.90
5.93
4.33
3.04
1.89
0.71
-0.57
-1.88
-3.04
-3.88
-4.36
-4.62
-4.94
-5.59
-6.71
-8.34
-10.48
-13.05
-15.95
-18.92
-21.46
-22.92
-22.66
-20.29
-15.88
-9.93
-3.22
3.39
9.27
14.07
17.70
20.24
21.77
22.31
21.85
20.44
18.27
15.65
12.94
10.41
8.15
6.07
4.05
2.05
0.19
-1.29
-2.23
-2.62
-2.64
-2.57
-2.71
-3.27
-4.29
-5.77
-7.64
-9.87
-12.42
-15.21
-18.06
-20.62
-22.43
-22.99
-21.91
-19.04
-14.54
-8.82
-2.43
4.08
10.24
15.67
20.10
23.31
25.16
25.66
24.97
23.34
21.05
18.32
15.37
12.39
9.58
7.18
5.37
4.19
3.53
3.16
2.81
2.30
1.56
0.61
-0.49
-1.70
-2.98
-4.32
-5.70
-7.08
-8.52
-10.18
-12.28
-14.99
-18.21
-21.50
-24.08
-25.12
-23.96
-20.45
-14.93
-8.16
-1.01
5.76
11.65
16.35
19.75
21.79
22.54
22.19
21.01
19.30
17.29
15.04
12.58
9.97
7.35
5.00
3.13
1.86
1.07
0.53
-0.01
-0.70
-1.55
-2.45
-3.31
-4.11
-4.90
-5.83
-7.03
-8.60
-10.58
-12.94
-15.57
-18.24
-20.55
-22.01
-22.14
-20.58
-17.26
-12.44
-6.63
-0.46
5.48
10.73
15.00
18.12
20.01
20.63
20.04
18.42
16.07
13.36
10.63
8.16
6.03
4.25
2.72
1.35
0.13
-0.89
-1.66
-2.16
-2.46
-2.77
-3.30
-4.21
-5.52
-7.15
-8.97
-10.93
-13.07
-15.43
-17.92
-20.20
-21.73
-21.92
-20.37
-17.03
-12.19
-6.41
-0.27
5.72
11.17
15.76
19.27
21.53
22.49
22.25
20.99
18.95
16.41
13.64
10.92
8.47
6.47
4.92
3.72
2.69
1.67
0.62
-0.42
-1.36
-2.15
-2.83
-3.52
-4.35
-5.41
-6.80
-8.60
-10.89
-13.66
-16.71
-19.60
-21.67
-22.26
-20.92
-17.55
-12.50
-6.37
0.11
6.31
11.78
16.26
19.62
21.80
22.76
22.54
21.28
19.25
16.78
14.21
11.74
9.47
7.39
5.47
3.76
2.34
1.28
0.55
0.00
-0.58
-1.35
-2.36
-3.51
-4.70
-5.86
-7.04
-8.40
-10.13
-12.34
-15.05
-18.05
-20.95
-23.21
-24.23
-23.58
-21.06
-16.80
-11.20
-4.82
1.75
8.00
13.54
18.06
21.38
23.38
24.06
23.54
22.05
19.88
17.31
14.56
11.79
9.08
6.55
4.31
2.51
1.28
0.63
0.48
0.62
0.80
0.76
0.31
-0.64
-2.06
-3.81
-5.69
-7.52
-9.20
-10.80
-12.51
-14.54
-16.96
-19.57
-21.91
-23.37
-23.37
-21.56
-17.98
-12.98
-7.10
-0.89
5.14
10.61
15.15
18.48
20.39
20.81
19.93
18.10
15.74
13.25
10.86
8.68
6.70
4.90
3.30
1.93
0.78
-0.19
-1.07
-1.92
-2.73
-3.43
-3.96
-4.30
-4.55
-4.91
-5.59
-6.76
-8.54
-10.90
-13.69
-16.62
-19.25
-21.01
-21.39
-20.05
-16.93
-12.30
-6.65
-0.59
5.34
10.65
15.01
18.21
20.13
20.81
20.36
19.00
16.94
14.39
11.58
8.73
6.09
3.86
2.15
0.94
0.08
-0.58
-1.17
-1.75
-2.36
-3.02
-3.78
-4.68
-5.75
-7.04
-8.56
-10.34
-12.43
-14.79
-17.27
-19.58
-21.30
-21.98
-21.21
-18.74
-14.58
-8.98
-2.47
4.25
10.43
15.43
18.92
20.89
21.61
21.42
20.61
19.32
17.58
15.38
12.81
10.09
7.51
5.31
3.64
2.48
1.71
1.13
0.58
-0.06
-0.87
-1.89
-3.10
-4.47
-5.95
-7.46
-8.95
-10.42
-11.95
-13.67
-15.70
-18.03
-20.45
-22.48
-23.50
-22.94
-20.44
-16.02
-10.09
-3.31
3.55
9.85
15.12
19.17
21.94
23.44
23.71
22.84
20.98
18.38
15.41
12.45
9.81
7.62
5.85
4.38
3.10
1.97
1.03
0.33
-0.16
-0.56
-1.05
-1.78
-2.81
-4.07
-5.40
-6.69
-7.90
-9.14
-10.64
-12.62
-15.21
-18.27
-21.35
-23.78
-24.81
-23.90
-20.87
-16.02
-9.97
-3.48
2.77
8.38
13.14
17.00
19.89
21.73
22.38
21.79
20.04
17.41
14.30
11.13
8.20
5.71
3.68
2.07
0.83
-0.12
-0.82
-1.34
-1.76
-2.17
-2.69
-3.40
-4.41
-5.71
-7.29
-9.08
-11.00
-13.01
-15.11
-17.22
-19.21
-20.73
-21.33
-20.55
-18.12
-14.07
-8.76
-2.75
3.34
8.95
13.71
17.36
19.78
20.94
20.89
19.76
17.76
15.15
12.22
9.28
6.56
4.22
2.33
0.85
-0.31
-1.28
-2.18
-3.08
-4.00
-4.93
-5.83
-6.70
-7.56
-8.51
-9.66
-11.13
-13.01
-15.23
-17.59
-19.71
-21.07
-21.16
-19.57
-16.17
-11.14
-5.00
1.58
7.89
13.36
17.69
20.76
22.57
23.19
22.65
21.06
18.62
15.61
12.43
9.43
6.87
4.85
3.29
2.03
0.87
-0.31
-1.54
-2.76
-3.84
-4.71
-5.34
-5.88
-6.54
-7.56
-9.09
-11.16
-13.65
-16.37
-19.03
-21.26
-22.55
-22.42
-20.44
-16.53
-10.95
-4.33
2.56
8.99
14.43
18.60
21.42
22.93
23.21
22.45
20.86
18.72
16.30
13.77
11.25
8.82
6.52
4.46
2.73
1.42
0.52
-0.00
-0.27
-0.42
-0.58
-0.89
-1.47
-2.43
-3.81
-5.62
-7.76
-10.16
-12.75
-15.54
-18.52
-21.58
-24.41
-26.43
-26.96
-25.47
-21.79
-16.21
-9.40
-2.16
4.83
11.14
16.52
20.80
23.84
25.46
25.63
24.47
22.32
19.59
16.68
13.86
11.28
9.00
7.09
5.59
4.53
3.85
3.41
3.00
2.46
1.65
0.54
-0.83
-2.35
-3.89
-5.32
-6.57
-7.69
-8.84
-10.30
-12.33
-15.03
-18.21
-21.34
-23.67
-24.45
-23.18
-19.80
-14.67
-8.43
-1.77
4.75
10.70
15.80
19.82
22.57
23.95
24.02
22.98
21.15
18.87
16.38
13.83
11.27
8.70
6.18
3.86
1.94
0.63
0.01
-0.00
0.29
0.55
0.49
-0.01
-0.87
-1.94
-3.09
-4.28
-5.58
-7.16
-9.17
-11.69
-14.68
-17.89
-20.90
-23.12
-23.99
-23.09
-20.31
-15.89
-10.33
-4.22
1.88
7.58
12.59
16.72
19.80
21.69
22.34
21.76
20.10
17.57
14.47
11.14
7.95
5.23
3.20
1.89
1.15
0.70
0.25
-0.36
-1.17
-2.07
-3.00
-3.89
-4.74
-5.58
-6.37
-7.16
-8.06
-9.29
-11.14
-13.73
-16.89
-20.10
-22.57
-23.47
-22.24
-18.76
-13.35
-6.72
0.33
7.00
12.71
17.11
20.09
21.72
22.16
21.62
20.32
18.45
16.24
13.86
11.45
9.08
6.80
4.64
2.68
1.05
-0.12
-0.77
-1.00
-1.00
-1.05
-1.38
-2.11
-3.24
-4.64
-6.23
-7.92
-9.70
-11.64
-13.82
-16.29
-19.03
-21.80
-24.13
-25.40
-24.96
-22.45
-17.87
-11.69
-4.67
2.36
8.73
14.08
18.24
21.24
23.06
23.72
23.22
21.64
19.24
16.33
13.28
10.41
7.92
5.90
4.36
3.23
2.41
1.77
1.17
0.50
-0.31
-1.21
-2.11
-2.94
-3.68
-4.41
-5.27
-6.41
-7.93
-9.91
-12.35
-15.18
-18.16
-20.81
-22.51
-22.63
-20.78
-16.96
-11.58
-5.34
1.04
7.00
12.20
16.48
19.78
21.98
23.00
22.82
21.56
19.49
16.96
14.28
11.67
9.22
6.92
4.78
2.84
1.17
-0.12
-1.00
-1.55
-1.90
-2.21
-2.62
-3.19
-3.95
-4.92
-6.10
-7.52
-9.22
-11.27
-13.67
-16.37
-19.13
-21.54
-23.02
-23.02
-21.18
-17.53
-12.44
-6.53
-0.49
5.15
10.04
14.06
17.15
19.28
20.38
20.37
19.25
17.16
14.36
11.21
8.09
5.26
2.90
1.02
-0.40
-1.40
-2.04
-2.39
-2.57
-2.78
-3.16
-3.82
-4.73
-5.81
-6.97
-8.22
-9.59
-11.16
-12.97
-14.92
-16.72
-17.99
-18.26
-17.14
-14.49
-10.41
-5.30
0.30
5.83
10.85
15.06
18.26
20.33
21.18
20.83
19.38
17.11
14.35
11.47
8.74
6.32
4.23
2.43
0.84
-0.60
-1.90
-3.06
-4.03
-4.79
-5.35
-5.79
-6.24
-6.83
-7.70
-8.94
-10.65
-12.85
-15.45
-18.17
-20.52
-21.89
-21.72
-19.66
-15.75
-10.36
-4.08
2.41
8.52
13.84
18.08
21.11
22.87
23.39
22.78
21.22
18.92
16.16
13.24
10.46
8.07
6.18
4.76
3.68
2.73
1.81
0.89
0.02
-0.75
-1.43
-2.16
-3.07
-4.28
-5.76
-7.40
-9.09
-10.80
-12.65
-14.84
-17.43
-20.22
-22.67
-24.02
-23.56
-20.92
-16.23
-10.12
-3.44
2.99
8.63
13.26
16.83
19.36
20.81
21.12
20.26
18.39
15.79
12.87
9.95
7.23
4.78
2.58
0.63
-1.00
-2.19
-2.82
-2.89
-2.51
-1.94
-1.46
-1.33
-1.66
-2.43
-3.57
-4.99
-6.67
-8.69
-11.07
-13.71
-16.26
-18.19
-18.88
-17.90
-15.12
-10.77
-5.39
0.39
5.99
11.02
15.25
18.55
20.82
21.95
21.87
20.62
18.42
15.60
12.54
9.56
6.85
4.47
2.40
0.59
-0.99
-2.32
-3.39
-4.20
-4.74
-5.04
-5.19
-5.32
-5.62
-6.31
-7.53
-9.34
-11.69
-14.40
-17.19
-19.65
-21.27
-21.48
-19.88
-16.35
-11.20
-5.10
1.16
6.92
11.81
15.75
18.79
20.91
21.99
21.85
20.43
17.90
14.70
11.35
8.31
5.83
3.90
2.38
1.07
-0.11
-1.18
-2.09
-2.80
-3.35
-3.84
-4.39
-5.12
-6.07
-7.29
-8.80
-10.66
-12.92
-15.50
-18.14
-20.32
-21.41
-20.88
-18.45
-14.23
-8.70
-2.51
3.68
9.35
14.14
17.81
20.20
21.18
20.75
19.09
16.56
13.65
10.78
8.22
6.00
4.04
2.21
0.45
-1.18
-2.57
-3.67
-4.47
-5.01
-5.35
-5.60
-5.84
-6.26
-7.04
-8.38
-10.36
-12.92
-15.81
-18.58
-20.68
-21.52
-20.61
-17.73
-13.03
-7.03
-0.48
5.84
11.39
15.91
19.35
21.68
22.84
22.76
21.43
19.07
16.06
12.88
9.91
7.34
5.19
3.37
1.80
0.45
-0.69
-1.61
-2.38
-3.04
-3.66
-4.26
-4.90
-5.65
-6.66
-8.10
-10.13
-12.73
-15.68
-18.56
-20.76
-21.70
-20.97
-18.40
-14.15
-8.64
-2.44
3.86
9.71
14.71
18.58
21.18
22.53
22.68
21.82
20.14
17.88
15.27
12.53
9.86
7.42
5.34
3.67
2.37
1.36
0.53
-0.23
-0.97
-1.72
-2.46
-3.20
-4.01
-4.97
-6.22
-7.86
-9.97
-12.54
-15.49
-18.58
-21.41
-23.40
-23.93
-22.51
-18.97
-13.59
-7.01
-0.06
6.49
12.13
16.63
19.98
22.22
23.35
23.33
22.20
20.08
17.25
14.09
10.95
8.12
5.76
3.89
2.43
1.27
0.30
-0.52
-1.17
-1.62
-1.91
-2.16
-2.54
-3.21
-4.22
-5.56
-7.20
-9.18
-11.59
-14.48
-17.66
-20.65
-22.73
-23.22
-21.67
-18.08
-12.88
-6.72
-0.31
5.75
11.05
15.36
18.58
20.66
21.58
21.39
20.15
18.06
15.40
12.51
9.73
7.26
5.16
3.37
1.75
0.23
-1.15
-2.31
-3.14
-3.63
-3.87
-4.03
-4.30
-4.83
-5.74
-7.06
-8.86
-11.14
-13.90
-16.97
-19.98
-22.36
-23.43
-22.65
-19.78
-14.99
-8.83
-2.00
4.74
10.83
15.88
19.68
22.16
23.33
23.30
22.24
20.39
18.00
15.31
12.50
9.75
7.23
5.07
3.38
2.22
1.55
1.26
1.21
1.21
1.12
0.84
0.32
-0.43
-1.44
-2.77
-4.51
-6.79
-9.62
-12.88
-16.26
-19.23
-21.20
-21.64
-20.26
-17.02
-12.21
-6.35
-0.08
6.01
11.43
15.88
19.23
21.45
22.58
22.61
21.59
19.60
16.87
13.72
10.55
7.67
5.26
3.35
1.86
0.67
-0.28
-1.05
-1.65
-2.14
-2.60
-3.12
-3.80
-4.67
-5.79
-7.18
-8.91
-11.04
-13.60
-16.48
-19.42
-21.91
-23.34
-23.15
-21.03
-17.05
-11.63
-5.45
0.84
6.72
11.86
16.11
19.36
21.53
22.51
22.27
20.91
18.65
15.78
12.65
9.55
6.72
4.34
2.48
1.18
0.34
-0.18
-0.58
-1.00
-1.55
-2.23
-3.00
-3.82
-4.70
-5.71
-6.96
-8.62
-10.75
-13.30
-16.03
-18.51
-20.21
-20.59
-19.29
-16.27
-11.73
-6.18
-0.19
5.66
10.89
15.18
18.31
20.18
20.79
20.25
18.76
16.60
14.06
11.38
8.71
6.17
3.87
1.90
0.36
-0.72
-1.47
-2.05
-2.66
-3.39
-4.20
-4.93
-5.50
-5.90
-6.27
-6.85
-7.84
-9.38
-11.47
-13.97
-16.60
-18.93
-20.42
-20.54
-18.96
-15.63
-10.88
-5.29
0.51
5.94
10.65
14.41
17.11
18.68
19.09
18.39
16.73
14.41
11.78
9.19
6.90
5.03
3.55
2.34
1.22
0.05
-1.23
-2.55
-3.78
-4.76
-5.39
-5.72
-5.95
-6.33
-7.16
-8.61
-10.70
-13.29
-15.99
-18.29
-19.67
-19.66
-18.05
-14.90
-10.48
-5.26
0.29
5.73
10.70
14.90
18.09
20.10
20.83
20.31
18.68
16.24
13.34
10.36
7.61
5.23
3.21
1.39
-0.38
-2.12
-3.71
-4.93
-5.62
-5.77
-5.56
-5.33
-5.43
-6.13
-7.57
-9.73
-12.42
-15.29
-17.84
-19.46
-19.62
-18.01
-14.64
-9.88
-4.28
1.53
7.01
11.80
15.68
18.57
20.40
21.16
20.85
19.53
17.34
14.54
11.48
8.49
5.84
3.64
1.85
0.36
-0.94
-2.08
-3.03
-3.76
-4.30
-4.78
-5.34
-6.13
-7.26
-8.78
-10.68
-12.89
-15.23
-17.40
-18.95
-19.41
-18.44
-15.89
-11.91
-6.89
-1.39
4.06
9.03
13.21
16.46
18.70
19.87
19.96
18.98
17.09
14.58
11.78
9.01
6.46
4.18
2.11
0.21
-1.48
-2.88
-3.91
-4.54
-4.89
-5.12
-5.41
-5.88
-6.60
-7.61
-8.93
-10.62
-12.67
-14.98
-17.28
-19.13
-20.01
-19.49
-17.35
-13.71
-8.94
-3.56
1.88
6.96
11.36
14.85
17.28
18.56
18.66
17.65
15.74
13.15
10.18
7.13
4.25
1.76
-0.25
-1.81
-3.03
-4.04
-4.91
-5.62
-6.13
-6.45
-6.66
-6.96
-7.55
-8.55
-10.03
-11.94
-14.12
-16.32
-18.19
-19.26
-19.12
-17.47
-14.30
-9.82
-4.51
1.12
6.57
11.47
15.57
18.70
20.72
21.51
20.99
19.21
16.38
12.90
9.28
6.00
3.36
1.45
0.11
-0.88
-1.73
-2.54
-3.31
-4.05
-4.75
-5.46
-6.22
-7.09
-8.14
-9.47
-11.19
-13.36
-15.80
-18.10
-19.64
-19.82
-18.20
-14.73
-9.77
-3.88
2.28
8.13
13.28
17.47
20.53
22.35
22.87
22.13
20.29
17.65
14.55
11.36
8.35
5.73
3.60
1.94
0.70
-0.25
-1.05
-1.82
-2.60
-3.39
-4.13
-4.78
-5.35
-5.97
-6.83
-8.21
-10.26
-12.96
-15.99
-18.76
-20.56
-20.76
-19.00
-15.33
-10.17
-4.14
2.11
8.06
13.32
17.62
20.77
22.66
23.31
22.85
21.53
19.62
17.34
14.81
12.13
9.39
6.74
4.37
2.39
0.83
-0.38
-1.36
-2.16
-2.76
-3.15
-3.38
-3.57
-3.94
-4.69
-5.92
-7.63
-9.75
-12.21
-14.83
-17.34
-19.27
-20.06
-19.26
-16.65
-12.43
-7.07
-1.25
4.37
9.33
13.35
16.36
18.39
19.50
19.73
19.10
17.68
15.58
13.02
10.30
7.67
5.31
3.26
1.49
-0.06
-1.40
-2.50
-3.31
-3.86
-4.20
-4.43
-4.70
-5.14
-5.90
-7.09
-8.79
-10.97
-13.49
-16.08
-18.34
-19.83
-20.07
-18.76
-15.81
-11.47
-6.21
-0.63
4.75
9.57
13.63
16.84
19.09
20.23
20.19
18.98
16.82
14.00
10.86
7.69
4.75
2.18
0.11
-1.43
-2.48
-3.18
-3.65
-4.03
-4.36
-4.67
-5.02
-5.52
-6.31
-7.54
-9.31
-11.57
-14.11
-16.54
-18.33
-18.94
-17.93
-15.17
-10.85
-5.51
0.19
5.61
10.30
14.09
16.95
18.91
20.00
20.19
19.48
17.94
15.75
13.16
10.45
7.86
5.53
3.53
1.88
0.55
-0.49
-1.28
-1.88
-2.34
-2.75
-3.18
-3.69
-4.39
-5.34
-6.63
-8.32
-10.45
-13.01
-15.86
-18.66
-20.89
-21.97
-21.42
-19.00
-14.82
-9.28
-2.93
3.61
9.80
15.18
19.39
22.21
23.58
23.60
22.49
20.57
18.12
15.34
12.42
9.52
6.80
4.42
2.51
1.12
0.22
-0.30
-0.61
-0.85
-1.19
-1.70
-2.45
-3.42
-4.57
-5.86
-7.29
-8.91
-10.83
-13.15
-15.85
-18.66
-21.04
-22.29
-21.74
-19.01
-14.19
-7.84
-0.81
6.00
11.85
16.34
19.34
20.98
21.48
21.05
19.88
18.14
15.97
13.56
11.09
8.75
6.63
4.75
3.08
1.60
0.30
-0.75
-1.50
-1.94
-2.20
-2.43
-2.81
-3.43
-4.35
-5.52
-6.94
-8.67
-10.78
-13.31
-16.13
-18.91
-21.08
-22.05
-21.34
-18.75
-14.47
-8.96
-2.85
3.29
8.95
13.77
17.52
20.03
21.29
21.38
20.52
18.95
16.91
14.54
11.99
9.35
6.77
4.45
2.57
1.25
0.50
0.19
0.10
-0.01
-0.30
-0.84
-1.60
-2.52
-3.52
-4.56
-5.67
-6.91
-8.36
-10.07
-12.06
-14.30
-16.62
-18.70
-20.07
-20.22
-18.76
-15.59
-10.94
-5.29
0.71
6.43
11.42
15.39
18.20
19.82
20.28
19.66
18.10
15.83
13.14
10.33
7.70
5.43
3.58
2.11
0.93
-0.09
-1.03
-1.91
-2.74
-3.49
-4.14
-4.71
-5.24
-5.82
-6.55
-7.55
-8.90
-10.69
-12.87
-15.28
-17.61
-19.40
-20.14
-19.41
-17.04
-13.15
-8.18
-2.71
2.70
7.60
11.72
14.94
17.16
18.32
18.39
17.44
15.63
13.24
10.57
7.91
5.46
3.31
1.48
-0.04
-1.32
-2.38
-3.25
-3.95
-4.49
-4.94
-5.39
-5.95
-6.72
-7.78
-9.18
-10.94
-13.10
-15.54
-18.02
-20.08
-21.16
-20.76
-18.60
-14.73
-9.56
-3.68
2.28
7.80
12.56
16.37
19.14
20.79
21.27
20.55
18.75
16.14
13.11
10.05
7.27
4.91
2.95
1.29
-0.11
-1.25
-2.11
-2.69
-3.10
-3.46
-3.92
-4.56
-5.39
-6.39
-7.59
-9.08
-10.94
-13.20
-15.69
-18.09
-19.96
-20.79
-20.19
-17.94
-14.11
-8.98
-3.02
3.22
9.19
14.39
18.46
21.18
22.48
22.45
21.27
19.26
16.71
13.95
11.21
8.67
6.46
4.61
3.15
2.02
1.15
0.44
-0.19
-0.83
-1.53
-2.34
-3.29
-4.33
-5.45
-6.63
-7.93
-9.48
-11.44
-13.83
-16.50
-19.05
-20.87
-21.39
-20.18
-17.13
-12.44
-6.61
-0.27
5.97
11.58
16.18
19.62
21.85
22.92
22.90
21.87
19.96
17.41
14.49
11.54
8.82
6.51
4.66
3.24
2.17
1.36
0.73
0.18
-0.38
-1.03
-1.81
-2.71
-3.65
-4.58
-5.51
-6.50
-7.71
-9.32
-11.48
-14.20
-17.27
-20.24
-22.51
-23.44
-22.59
-19.80
-15.31
-9.66
-3.52
2.49
7.88
12.39
15.95
18.55
20.22
20.97
20.81
19.76
17.88
15.33
12.34
9.19
6.18
3.58
1.57
0.21
-0.58
-0.94
-1.05
-1.10
-1.24
-1.59
-2.28
-3.37
-4.82
-6.53
-8.30
-9.97
-11.52
-13.07
-14.77
-16.64
-18.40
-19.51
-19.37
-17.55
-14.00
-9.11
-3.47
2.29
7.71
12.51
16.52
19.59
21.54
22.21
21.60
19.86
17.33
14.39
11.41
8.68
6.35
4.47
2.96
1.71
0.59
-0.51
-1.58
-2.57
-3.41
-4.05
-4.52
-4.90
-5.36
-6.06
-7.13
-8.70
-10.81
-13.43
-16.34
-19.16
-21.32
-22.20
-21.27
-18.27
-13.36
-7.11
-0.33
6.18
11.79
16.22
19.46
21.60
22.72
22.80
21.83
19.89
17.23
14.22
11.29
8.72
6.65
5.04
3.78
2.78
1.99
1.39
0.97
0.61
0.18
-0.46
-1.35
-2.48
-3.73
-5.00
-6.26
-7.55
-9.00
-10.73
-12.83
-15.29
-17.96
-20.58
-22.69
-23.76
-23.28
-20.92
-16.70
-11.00
-4.48
2.09
8.09
13.16
17.20
20.22
22.25
23.27
23.22
22.10
20.05
17.32
14.29
11.28
8.59
6.36
4.68
3.51
2.77
2.32
2.01
1.67
1.16
0.38
-0.69
-2.02
-3.51
-4.99
-6.30
-7.33
-8.11
-8.87
-9.99
-11.81
-14.50
-17.82
-21.12
-23.50
-24.08
-22.35
-18.32
-12.49
-5.70
1.17
7.47
12.80
17.00
20.03
21.90
22.62
22.28
21.07
19.24
17.07
14.80
12.56
10.42
8.40
6.53
4.88
3.53
2.58
2.11
2.10
2.41
2.78
2.92
2.58
1.63
0.16
-1.64
-3.51
-5.26
-6.81
-8.19
-9.46
-10.72
-12.09
-13.74
-15.83
-18.48
-21.58
-24.75
-27.31
-28.49
-27.67
-24.61
-19.51
-13.01
-5.94
0.91
6.95
11.93
15.81
18.67
20.58
21.52
21.44
20.34
18.34
15.70
12.81
10.04
7.63
5.71
4.23
3.12
2.26
1.56
1.00
0.56
0.25
0.02
-0.27
-0.76
-1.63
-2.94
-4.63
-6.55
-8.55
-10.57
-12.65
-14.87
-17.15
-19.19
-20.51
-20.60
-19.13
-16.07
-11.72
-6.55
-1.06
4.35
9.38
13.81
17.45
20.10
21.60
21.89
21.02
19.20
16.71
13.88
11.00
8.31
5.91
3.86
2.21
0.98
0.21
-0.12
-0.18
-0.19
-0.45
-1.15
-2.30
-3.76
-5.27
-6.64
-7.76
-8.74
-9.80
-11.20
-13.15
-15.71
-18.66
-21.54
-23.69
-24.44
-23.24
-19.94
-14.75
-8.29
-1.32
5.39
11.25
15.90
19.20
21.16
21.90
21.65
20.64
19.18
17.47
15.64
13.69
11.54
9.18
6.67
4.26
2.27
0.91
0.19
-0.10
-0.30
-0.71
-1.44
-2.44
-3.54
-4.61
-5.61
-6.63
-7.79
-9.21
-11.00
-13.22
-15.86
-18.75
-21.52
-23.63
-24.44
-23.44
-20.49
-15.81
-9.96
-3.60
2.71
8.54
13.68
17.93
21.11
23.03
23.61
22.91
21.20
18.85
16.25
13.67
11.29
9.16
7.28
5.66
4.29
3.16
2.26
1.53
0.93
0.38
-0.22
-0.94
-1.84
-2.90
-4.01
-5.05
-5.94
-6.75
-7.70
-9.12
-11.26
-14.18
-17.71
-21.42
-24.73
-27.01
-27.68
-26.34
-22.92
-17.66
-11.13
-4.06
2.81
8.93
13.95
17.74
20.30
21.69
22.04
21.51
20.29
18.59
16.55
14.25
11.77
9.21
6.74
4.53
2.75
1.49
0.74
0.45
0.49
0.67
0.76
0.53
-0.17
-1.37
-2.93
-4.64
-6.28
-7.74
-9.07
-10.43
-12.04
-14.05
-16.43
-18.88
-20.92
-21.95
-21.46
-19.20
-15.28
-10.13
-4.28
1.68
7.33
12.36
16.52
19.60
21.45
22.03
21.43
19.91
17.78
15.31
12.74
10.24
7.92
5.89
4.21
2.92
1.99
1.30
0.72
0.09
-0.69
-1.65
-2.71
-3.74
-4.65
-5.41
-6.10
-6.93
-8.09
-9.74
-11.93
-14.57
-17.42
-20.05
-21.95
-22.55
-21.41
-18.33
-13.48
-7.35
-0.62
5.99
11.89
16.68
20.15
22.28
23.20
23.12
22.28
20.88
19.04
16.81
14.20
11.33
8.40
5.68
3.44
1.84
0.90
0.57
0.65
0.93
1.11
0.88
0.03
-1.53
-3.63
-5.97
-8.15
-9.92
-11.21
-12.23
-13.34
-14.91
-17.14
-19.91
-22.74
-24.89
-25.61
-24.39
-21.07
-15.94
-9.59
-2.67
4.17
10.46
15.81
19.96
22.72
24.05
24.05
22.98
21.18
18.98
16.65
14.39
12.27
10.30
8.41
6.57
4.81
3.24
2.04
1.34
1.12
1.20
1.28
1.09
0.45
-0.61
-1.97
-3.47
-5.02
-6.63
-8.36
-10.30
-12.56
-15.18
-18.07
-20.97
-23.44
-24.92
-24.91
-23.10
-19.47
-14.30
-8.09
-1.42
5.13
11.10
16.12
19.97
22.57
23.93
24.14
23.34
21.68
19.36
16.62
13.71
10.87
8.31
6.11
4.34
3.01
2.09
1.54
1.24
1.00
0.63
-0.01
-0.91
-1.99
-3.09
-4.06
-4.85
-5.56
-6.36
-7.51
-9.23
-11.66
-14.72
-18.10
-21.24
-23.47
-24.13
-22.82
-19.52
-14.56
-8.55
-2.21
3.84
9.16
13.50
16.76
18.91
19.95
19.95
19.06
17.48
15.43
13.10
10.64
8.20
5.90
3.86
2.14
0.73
-0.47
-1.54
-2.53
-3.40
-4.07
-4.56
-4.96
-5.44
-6.18
-7.25
-8.65
-10.38
-12.44
-14.87
-17.57
-20.20
-22.16
-22.75
-21.43
-18.05
-12.98
-6.92
-0.67
5.12
10.13
14.29
17.65
20.20
21.82
22.34
21.67
19.91
17.36
14.42
11.46
8.72
6.27
4.09
2.12
0.35
-1.14
-2.31
-3.12
-3.62
-3.95
-4.26
-4.71
-5.42
-6.47
-7.89
-9.69
-11.82
-14.23
-16.78
-19.21
-21.10
-21.97
-21.35
-19.00
-14.99
-9.73
-3.80
2.21
7.84
12.78
16.83
19.84
21.69
22.31
21.80
20.33
18.22
15.76
13.20
10.72
8.42
6.36
4.54
2.93
1.45
0.09
-1.16
-2.21
-3.01
-3.56
-3.98
-4.45
-5.18
-6.27
-7.73
-9.53
-11.63
-14.01
-16.59
-19.18
-21.39
-22.64
-22.38
-20.27
-16.35
-11.08
-5.14
0.81
6.32
11.16
15.28
18.64
21.09
22.47
22.68
21.77
19.97
17.57
14.89
12.18
9.61
7.29
5.33
3.78
2.66
1.89
1.37
0.93
0.42
-0.25
-1.17
-2.27
-3.47
-4.67
-5.79
-6.89
-8.14
-9.76
-11.89
-14.55
-17.53
-20.43
-22.79
-24.11
-23.99
-22.18
-18.63
-13.56
-7.43
-0.84
5.55
11.28
16.06
19.81
22.53
24.22
24.81
24.23
22.53
19.97
16.94
13.88
11.13
8.86
7.08
5.73
4.73
4.02
3.55
3.23
2.92
2.47
1.74
0.68
-0.69
-2.26
-3.88
-5.37
-6.63
-7.69
-8.70
-9.98
-11.89
-14.65
-18.21
-22.13
-25.65
-27.85
-27.93
-25.53
-20.80
-14.37
-7.14
0.06
6.63
12.25
16.78
20.18
22.40
23.39
23.23
22.10
20.30
18.13
15.84
13.53
11.21
8.87
6.54
4.31
2.38
0.94
0.12
-0.16
-0.14
-0.16
-0.55
-1.45
-2.77
-4.27
-5.68
-6.83
-7.76
-8.66
-9.83
-11.51
-13.81
-16.59
-19.43
-21.70
-22.71
-21.94
-19.22
-14.80
-9.29
-3.36
2.41
7.67
12.23
15.95
18.68
20.19
20.38
19.28
17.17
14.44
11.51
8.70
6.20
4.09
2.38
1.02
-0.04
-0.86
-1.54
-2.18
-2.85
-3.59
-4.41
-5.27
-6.14
-7.03
-8.01
-9.18
-10.69
-12.65
-15.04
-17.63
-19.98
-21.50
-21.59
-19.85
-16.22
-10.99
-4.77
1.74
7.88
13.21
17.47
20.56
22.41
22.96
22.21
20.32
17.62
14.56
11.60
9.02
6.89
5.02
3.20
1.30
-0.64
-2.41
-3.81
-4.66
-4.99
-4.94
-4.83
-4.95
-5.61
-6.98
-9.12
-11.94
-15.21
-18.54
-21.39
-23.14
-23.19
-21.18
-17.15
-11.53
-5.10
1.35
7.21
12.17
16.18
19.26
21.37
22.45
22.42
21.34
19.41
16.95
14.23
11.46
8.77
6.22
3.86
1.75
-0.09
-1.61
-2.75
-3.48
-3.81
-3.82
-3.73
-3.84
-4.43
-5.67
-7.60
-10.12
-13.06
-16.15
-18.99
-21.07
-21.85
-20.90
-18.06
-13.57
-7.91
-1.69
4.48
10.15
14.98
18.76
21.36
22.75
22.98
22.16
20.47
18.08
15.23
12.16
9.17
6.51
4.31
2.57
1.14
-0.12
-1.29
-2.34
-3.17
-3.75
-4.16
-4.59
-5.29
-6.40
-7.93
-9.83
-12.01
-14.45
-17.13
-19.91
-22.36
-23.87
-23.77
-21.62
-17.43
-11.70
-5.20
1.27
7.14
12.14
16.21
19.38
21.60
22.73
22.64
21.33
18.97
15.91
12.61
9.50
6.89
4.88
3.38
2.20
1.12
-0.00
-1.14
-2.19
-3.05
-3.68
-4.16
-4.67
-5.44
-6.64
-8.38
-10.67
-13.45
-16.52
-19.53
-21.97
-23.25
-22.87
-20.53
-16.28
-10.52
-3.90
2.83
9.06
14.34
18.44
21.29
22.87
23.22
22.39
20.53
17.93
14.92
11.89
9.12
6.76
4.82
3.18
1.72
0.38
-0.88
-1.98
-2.86
-3.45
-3.76
-3.92
-4.16
-4.75
-5.96
-7.91
-10.57
-13.69
-16.89
-19.66
-21.46
-21.80
-20.34
-16.99
-11.95
-5.73
1.01
7.54
13.27
17.85
21.17
23.25
24.20
24.11
23.03
21.09
18.45
15.40
12.28
9.42
7.05
5.24
3.95
3.05
2.39
1.83
1.25
0.58
-0.24
-1.25
-2.42
-3.72
-5.12
-6.57
-8.07
-9.68
-11.55
-13.84
-16.62
-19.76
-22.78
-24.98
-25.56
-23.96
-20.05
-14.19
-7.15
0.22
7.16
13.13
17.87
21.25
23.27
23.99
23.56
22.21
20.22
17.90
15.51
13.18
10.98
8.87
6.81
4.78
2.86
1.18
-0.12
-0.99
-1.50
-1.82
-2.17
-2.72
-3.55
-4.65
-5.97
-7.47
-9.14
-11.02
-13.17
-15.61
-18.21
-20.65
-22.47
-23.13
-22.21
-19.52
-15.23
-9.76
-3.68
2.45
8.20
13.23
17.29
20.18
21.75
21.97
20.95
18.92
16.19
13.09
9.94
7.01
4.51
2.54
1.12
0.15
-0.55
-1.15
-1.75
-2.45
-3.27
-4.19
-5.15
-6.12
-7.05
-7.98
-9.04
-10.45
-12.38
-14.81
-17.46
-19.80
-21.22
-21.17
-19.36
-15.79
-10.75
-4.77
1.57
7.67
13.06
17.44
20.68
22.70
23.48
22.99
21.30
18.60
15.29
11.86
8.80
6.43
4.81
3.76
3.02
2.32
1.51
0.57
-0.45
-1.49
-2.51
-3.50
-4.48
-5.50
-6.63
-7.93
-9.51
-11.48
-13.90
-16.72
-19.66
-22.28
-23.93
-24.05
-22.25
-18.48
-13.03
-6.50
0.42
7.03
12.78
17.32
20.50
22.36
23.01
22.63
21.41
19.54
17.23
14.67
12.06
9.56
7.31
5.42
3.96
2.93
2.25
1.78
1.34
0.75
-0.08
-1.18
-2.47
-3.86
-5.26
-6.65
-8.06
-9.56
-11.27
-13.31
-15.71
-18.36
-20.97
-23.05
-24.05
-23.52
-21.22
-17.24
-11.91
-5.73
0.72
6.92
12.44
16.92
20.18
22.12
22.80
22.35
20.95
18.85
16.29
13.54
10.84
8.39
6.30
4.62
3.30
2.29
1.52
0.93
0.41
-0.15
-0.90
-1.88
-3.04
-4.25
-5.39
-6.42
-7.41
-8.51
-9.94
-11.86
-14.32
-17.20
-20.10
-22.42
-23.45
-22.62
-19.67
-14.82
-8.69
-2.10
4.17
9.55
13.79
16.82
18.69
19.48
19.27
18.17
16.35
13.98
11.27
8.46
5.76
3.39
1.48
0.07
-0.91
-1.65
-2.29
-2.92
-3.55
-4.12
-4.60
-5.03
-5.50
-6.13
-7.00
-8.22
-9.81
-11.83
-14.20
-16.73
-19.01
-20.50
-20.64
-19.09
-15.84
-11.27
-5.93
-0.43
4.82
9.56
13.65
16.99
19.43
20.82
21.05
20.17
18.36
15.89
13.06
10.13
7.32
4.77
2.55
0.70
-0.76
-1.83
-2.55
-2.97
-3.22
-3.48
-3.93
-4.67
-5.70
-6.93
-8.28
-9.72
-11.35
-13.34
-15.73
-18.39
-20.87
-22.56
-22.82
-21.25
-17.79
-12.75
-6.69
-0.27
5.92
11.45
16.00
19.41
21.62
22.62
22.47
21.34
19.42
16.98
14.27
11.53
8.97
6.74
4.91
3.48
2.37
1.44
0.51
-0.54
-1.73
-2.99
-4.20
-5.26
-6.17
-7.04
-8.01
-9.20
-10.74
-12.74
-15.26
-18.18
-21.16
-23.56
-24.60
-23.63
-20.39
-15.16
-8.62
-1.65
5.03
10.90
15.72
19.37
21.77
22.92
22.89
21.88
20.18
18.05
15.67
13.15
10.54
7.89
5.32
2.97
0.98
-0.57
-1.67
-2.36
-2.77
-3.00
-3.18
-3.40
-3.76
-4.37
-5.38
-6.91
-9.01
-11.61
-14.51
-17.43
-19.99
-21.79
-22.42
-21.56
-19.03
-14.95
-9.71
-3.89
1.92
7.29
11.97
15.86
18.88
20.90
21.75
21.35
19.81
17.37
14.40
11.27
8.25
5.53
3.20
1.29
-0.24
-1.44
-2.41
-3.20
-3.82
-4.35
-4.89
-5.57
-6.55
-7.89
-9.54
-11.39
-13.33
-15.24
-17.03
-18.48
-19.26
-18.97
-17.30
-14.14
-9.73
-4.55
0.88
6.12
10.90
15.09
18.58
21.18
22.66
22.77
21.44
18.80
15.27
11.41
7.77
4.74
2.46
0.84
-0.35
-1.31
-2.17
-2.99
-3.77
-4.54
-5.34
-6.20
-7.12
-8.11
-9.19
-10.48
-12.16
-14.34
-16.87
-19.36
-21.17
-21.59
-20.14
-16.68
-11.51
-5.25
1.39
7.77
13.44
18.13
21.66
23.88
24.65
23.96
21.96
19.04
15.71
12.45
9.59
7.24
5.31
3.63
2.09
0.60
-0.83
-2.16
-3.38
-4.45
-5.34
-6.06
-6.64
-7.15
-7.78
-8.70
-10.11
-12.14
-14.76
-17.72
-20.53
-22.49
-22.91
-21.31
-17.60
-12.14
-5.59
1.29
7.79
13.46
18.04
21.39
23.47
24.26
23.81
22.27
19.95
17.19
14.34
11.69
9.33
7.24
5.30
3.44
1.66
0.07
-1.20
-2.05
-2.55
-2.84
-3.14
-3.59
-4.31
-5.36
-6.80
-8.73
-11.25
-14.31
-17.66
-20.79
-23.03
-23.72
-22.42
-19.10
-14.07
-7.94
-1.40
4.93
10.62
15.44
19.25
21.97
23.57
24.00
23.31
21.62
19.16
16.19
13.01
9.88
7.01
4.56
2.57
1.02
-0.18
-1.15
-1.99
-2.75
-3.47
-4.15
-4.84
-5.57
-6.43
-7.51
-8.91
-10.72
-12.97
-15.51
-18.04
-20.07
-21.04
-20.47
-18.13
-14.14
-8.87
-2.91
3.14
8.76
13.56
17.29
19.86
21.26
21.53
20.72
18.92
16.24
12.94
9.40
6.05
3.26
1.17
-0.30
-1.37
-2.25
-3.04
-3.71
-4.24
-4.68
-5.14
-5.78
-6.66
-7.79
-9.13
-10.71
-12.59
-14.77
-17.10
-19.21
-20.54
-20.57
-18.97
-15.67
-10.91
-5.14
1.10
7.22
12.71
17.18
20.41
22.31
22.95
22.46
21.00
18.77
16.00
13.00
10.09
7.51
5.38
3.63
2.07
0.53
-1.05
-2.55
-3.78
-4.60
-4.98
-5.11
-5.30
-5.86
-7.02
-8.82
-11.20
-13.99
-16.94
-19.66
-21.66
-22.37
-21.30
-18.20
-13.22
-6.88
0.03
6.68
12.40
16.82
19.91
21.80
22.69
22.74
21.98
20.44
18.16
15.36
12.32
9.40
6.88
4.84
3.25
1.96
0.85
-0.16
-1.06
-1.84
-2.51
-3.16
-3.85
-4.65
-5.59
-6.68
-7.97
-9.55
-11.54
-14.00
-16.82
-19.64
-21.92
-23.01
-22.36
-19.70
-15.12
-9.08
-2.23
4.68
10.98
16.23
20.15
22.65
23.77
23.65
22.53
20.72
18.50
16.13
13.73
11.38
9.07
6.86
4.85
3.17
1.88
1.00
0.37
-0.18
-0.85
-1.74
-2.86
-4.15
-5.48
-6.77
-7.99
-9.20
-10.57
-12.26
-14.42
-17.02
-19.77
-22.20
-23.68
-23.62
-21.67
-17.83
-12.45
-6.13
0.47
6.75
12.30
16.84
20.21
22.31
23.12
22.72
21.30
19.14
16.59
13.94
11.37
8.98
6.83
4.96
3.41
2.21
1.34
0.71
0.16
-0.45
-1.22
-2.15
-3.19
-4.25
-5.24
-6.19
-7.17
-8.37
-9.95
-12.05
-14.68
-17.67
-20.64
-22.98
-24.07
-23.40
-20.75
-16.30
-10.60
-4.35
1.76
7.23
11.86
15.59
18.46
20.43
21.37
21.20
19.91
17.69
14.86
11.82
8.89
6.30
4.15
2.48
1.26
0.44
-0.10
-0.53
-1.03
-1.73
-2.67
-3.79
-5.02
-6.27
-7.54
-8.87
-10.36
-12.07
-14.04
-16.24
-18.44
-20.26
-21.14
-20.56
-18.17
-13.95
-8.33
-1.99
4.31
9.94
14.55
18.02
20.35
21.56
21.67
20.70
18.81
16.30
13.54
10.88
8.54
6.57
4.86
3.33
1.91
0.64
-0.43
-1.28
-1.96
-2.58
-3.23
-3.96
-4.76
-5.65
-6.64
-7.81
-9.28
-11.11
-13.35
-15.97
-18.75
-21.34
-23.17
-23.66
-22.33
-19.03
-14.02
-7.89
-1.38
4.87
10.41
14.99
18.50
20.83
21.95
21.90
20.88
19.18
17.16
15.07
13.03
11.02
8.99
6.93
4.90
3.01
1.41
0.19
-0.64
-1.12
-1.40
-1.64
-2.00
-2.60
-3.48
-4.61
-5.94
-7.43
-9.13
-11.15
-13.58
-16.39
-19.31
-21.79
-23.19
-22.89
-20.58
-16.37
-10.74
-4.40
1.96
7.79
12.79
16.82
19.80
21.68
22.41
22.04
20.69
18.61
16.08
13.34
10.60
8.02
5.73
3.86
2.49
1.60
1.07
0.68
0.23
-0.40
-1.28
-2.34
-3.48
-4.62
-5.74
-6.87
-8.09
-9.53
-11.31
-13.50
-16.06
-18.78
-21.24
-22.89
-23.13
-21.59
-18.23
-13.35
-7.53
-1.41
4.46
9.68
14.05
17.42
19.67
20.73
20.58
19.33
17.25
14.67
11.92
9.29
6.94
4.92
3.22
1.77
0.47
-0.69
-1.71
-2.55
-3.18
-3.64
-3.98
-4.35
-4.88
-5.72
-6.97
-8.73
-11.04
-13.80
-16.71
-19.27
-20.88
-21.00
-19.32
-15.88
-10.99
-5.18
0.96
6.88
12.12
16.31
19.27
20.92
21.34
20.68
19.16
16.99
14.42
11.68
9.00
6.60
4.58
2.93
1.53
0.24
-1.04
-2.31
-3.49
-4.52
-5.35
-6.06
-6.78
-7.70
-8.97
-10.68
-12.83
-15.29
-17.80
-19.96
-21.35
-21.54
-20.21
-17.27
-12.85
-7.34
-1.23
4.91
10.58
15.40
19.14
21.68
23.01
23.18
22.30
20.54
18.10
15.23
12.21
9.30
6.72
4.55
2.76
1.29
0.03
-1.03
-1.90
-2.55
-3.01
-3.38
-3.83
-4.52
-5.59
-7.07
-8.94
-11.20
-13.77
-16.54
-19.16
-21.17
-21.98
-21.11
-18.37
-13.95
-8.33
-2.08
4.31
10.52
16.32
21.44
25.52
28.08
28.78
27.51
24.51
20.29
15.52
10.76
6.44
2.76
-0.22
-2.51
-4.19
-5.33
-6.04
-6.41
-6.59
-6.71
-6.93
-7.38
-8.14
-9.20
-10.53
-12.08
-13.84
-15.81
-17.94
-20.05
-21.78
-22.62
-22.11
-19.94
-16.15
-11.07
-5.26
0.67
6.23
11.06
14.92
17.70
19.29
19.68
18.91
17.14
14.67
11.85
9.06
6.63
4.79
3.60
2.97
2.66
2.39
1.96
1.27
0.41
-0.46
-1.21
-1.84
-2.51
-3.47
-4.99
-7.21
-10.09
-13.38
-16.65
-19.36
-20.96
-20.98
-19.17
-15.56
-10.45
-4.41
1.91
7.87
13.00
17.00
19.76
21.30
21.71
21.16
19.83
17.92
15.62
13.11
10.53
8.03
5.70
3.63
1.88
0.44
-0.72
-1.63
-2.30
-2.72
-2.98
-3.21
-3.66
-4.55
-5.97
-7.89
-10.11
-12.45
-14.80
-17.13
-19.35
-21.25
-22.40
-22.25
-20.36
-16.57
-11.14
-4.65
2.13
8.49
13.91
18.17
21.23
23.15
24.01
23.83
22.66
20.65
18.06
15.23
12.50
10.05
7.94
6.12
4.53
3.18
2.08
1.24
0.56
-0.11
-0.91
-1.91
-3.10
-4.41
-5.77
-7.17
-8.65
-10.30
-12.22
-14.45
-16.97
-19.58
-21.87
-23.26
-23.16
-21.17
-17.26
-11.75
-5.25
1.54
8.01
13.71
18.32
21.66
23.60
24.18
23.57
22.08
20.06
17.79
15.43
13.01
10.54
8.06
5.71
3.66
2.04
0.91
0.20
-0.26
-0.64
-1.07
-1.67
-2.45
-3.43
-4.56
-5.80
-7.10
-8.51
-10.13
-12.13
-14.64
-17.56
-20.50
-22.84
-23.84
-22.94
-19.97
-15.19
-9.24
-2.88
3.22
8.63
13.15
16.74
19.38
21.02
21.60
21.09
19.57
17.26
14.46
11.47
8.59
6.00
3.81
2.03
0.62
-0.49
-1.37
-2.13
-2.81
-3.47
-4.12
-4.75
-5.39
-6.07
-6.91
-8.02
-9.53
-11.51
-13.87
-16.41
-18.69
-20.20
-20.42
-18.98
-15.85
-11.29
-5.78
0.07
5.76
10.93
15.34
18.85
21.29
22.50
22.40
21.07
18.78
15.93
12.93
10.10
7.59
5.42
3.54
1.88
0.42
-0.83
-1.85
-2.66
-3.35
-4.01
-4.75
-5.60
-6.58
-7.67
-8.93
-10.48
-12.45
-14.88
-17.59
-20.11
-21.77
-21.92
-20.19
-16.61
-11.61
-5.85
0.06
5.67
10.73
15.09
18.61
21.10
22.34
22.26
20.97
18.75
16.01
13.15
10.46
8.08
6.01
4.17
2.48
0.91
-0.53
-1.77
-2.77
-3.57
-4.22
-4.84
-5.55
-6.43
-7.55
-8.96
-10.72
-12.88
-15.34
-17.81
-19.78
-20.64
-19.86
-17.24
-12.96
-7.54
-1.63
4.21
9.59
14.31
18.24
21.19
22.96
23.39
22.50
20.50
17.79
14.79
11.85
9.15
6.74
4.56
2.59
0.85
-0.61
-1.73
-2.53
-3.09
-3.54
-3.98
-4.50
-5.13
-5.88
-6.84
-8.10
-9.81
-12.07
-14.78
-17.62
-20.01
-21.30
-20.93
-18.63
-14.57
-9.26
-3.41
2.32
7.47
11.79
15.21
17.71
19.25
19.79
19.33
17.94
15.80
13.15
10.23
7.33
4.68
2.46
0.78
-0.40
-1.20
-1.82
-2.46
-3.26
-4.25
-5.39
-6.60
-7.83
-9.07
-10.36
-11.77
-13.38
-15.21
-17.15
-18.98
-20.28
-20.54
-19.34
-16.45
-11.97
-6.32
-0.14
5.93
11.36
15.81
19.10
21.13
21.89
21.40
19.77
17.29
14.29
11.17
8.28
5.83
3.88
2.38
1.19
0.17
-0.82
-1.86
-2.95
-4.08
-5.18
-6.19
-7.14
-8.06
-9.09
-10.38
-12.06
-14.14
-16.47
-18.67
-20.21
-20.54
-19.24
-16.19
-11.57
-5.88
0.26
6.24
11.58
15.95
19.20
21.31
22.28
22.20
21.22
19.53
17.36
14.92
12.40
9.91
7.50
5.20
3.03
1.07
-0.62
-1.97
-2.95
-3.58
-3.94
-4.15
-4.37
-4.76
-5.49
-6.67
-8.38
-10.61
-13.31
-16.33
-19.34
-21.92
-23.47
-23.45
-21.50
-17.58
-12.03
-5.46
1.42
7.97
13.68
18.25
21.50
23.37
23.94
23.33
21.82
19.68
17.17
14.49
11.76
9.11
6.63
4.45
2.67
1.32
0.33
-0.41
-1.05
-1.66
-2.31
-3.03
-3.82
-4.75
-5.84
-7.08
-8.48
-10.08
-12.01
-14.40
-17.24
-20.26
-22.83
-24.18
-23.59
-20.77
-15.90
-9.64
-2.79
3.89
9.89
14.93
18.89
21.74
23.44
24.02
23.53
22.10
19.96
17.34
14.49
11.64
8.96
6.54
4.41
2.53
0.88
-0.58
-1.82
-2.80
-3.53
-4.06
-4.54
-5.13
-5.97
-7.11
-8.52
-10.12
-11.87
-13.80
-15.90
-18.09
-20.07
-21.36
-21.40
-19.75
-16.34
-11.42
-5.57
0.57
6.41
11.55
15.76
18.91
20.91
21.68
21.21
19.62
17.14
14.14
11.01
8.09
5.61
3.61
2.03
0.70
-0.54
-1.76
-2.96
-4.04
-4.92
-5.57
-6.05
-6.49
-7.02
-7.77
-8.83
-10.27
-12.16
-14.46
-16.99
-19.35
-20.99
-21.31
-19.93
-16.73
-12.01
-6.30
-0.25
5.61
10.87
15.31
18.79
21.18
22.34
22.21
20.87
18.56
15.68
12.66
9.83
7.34
5.16
3.21
1.42
-0.21
-1.64
-2.83
-3.79
-4.57
-5.24
-5.85
-6.51
-7.30
-8.36
-9.81
-11.71
-14.03
-16.61
-19.14
-21.13
-22.07
-21.48
-19.14
-15.14
-9.90
-4.04
1.84
7.28
12.01
15.93
18.96
21.04
22.10
22.08
21.01
19.02
16.32
13.24
10.13
7.31
5.00
3.19
1.75
0.48
-0.71
-1.81
-2.71
-3.32
-3.72
-4.12
-4.76
-5.80
-7.24
-9.00
-10.98
-13.19
-15.65
-18.30
-20.85
-22.77
-23.43
-22.28
-19.10
-14.07
-7.76
-0.94
5.63
11.37
15.95
19.30
21.48
22.64
22.90
22.35
21.05
19.09
16.60
13.80
10.98
8.40
6.24
4.59
3.36
2.39
1.48
0.49
-0.65
-1.91
-3.20
-4.44
-5.60
-6.68
-7.72
-8.81
-10.06
-11.63
-13.66
-16.24
-19.21
-22.15
-24.38
-25.18
-23.98
-20.58
-15.27
-8.69
-1.62
5.20
11.24
16.17
19.85
22.19
23.18
22.92
21.58
19.45
16.85
14.10
11.44
9.01
6.89
5.06
3.48
2.09
0.86
-0.22
-1.16
-1.96
-2.62
-3.21
-3.78
-4.42
-5.21
-6.21
-7.51
-9.22
-11.43
-14.16
-17.19
-20.03
-22.03
-22.53
-21.09
-17.70
-12.76
-6.92
-0.87
4.87
10.01
14.40
17.95
20.56
22.07
22.40
21.54
19.65
17.00
13.91
10.72
7.68
5.01
2.81
1.07
-0.28
-1.36
-2.29
-3.13
-3.91
-4.65
-5.38
-6.13
-7.01
-8.10
-9.48
-11.20
-13.25
-15.52
-17.84
-19.95
-21.45
-21.89
-20.87
-18.12
-13.68
-7.91
-1.39
5.16
11.15
16.17
20.03
22.68
24.11
24.33
23.37
21.36
18.57
15.39
12.24
9.40
7.02
5.08
3.46
2.07
0.87
-0.17
-1.08
-1.91
-2.76
-3.73
-4.82
-6.00
-7.16
-8.25
-9.33
-10.60
-12.35
-14.72
-17.63
-20.60
-22.91
-23.75
-22.56
-19.21
-14.04
-7.71
-1.00
5.47
11.27
16.21
20.15
22.97
24.56
24.89
24.01
22.15
19.64
16.81
13.94
11.23
8.78
6.62
4.79
3.28
2.04
1.01
0.06
-0.92
-1.99
-3.11
-4.21
-5.19
-6.01
-6.74
-7.56
-8.72
-10.48
-12.94
-16.00
-19.28
-22.13
-23.82
-23.73
-21.55
-17.38
-11.71
-5.21
1.41
7.60
12.97
17.30
20.42
22.24
22.75
22.04
20.32
17.92
15.18
12.41
9.84
7.60
5.73
4.17
2.81
1.55
0.29
-0.94
-2.07
-3.01
-3.71
-4.19
-4.62
-5.14
-5.89
-6.95
-8.38
-10.26
-12.68
-15.61
-18.79
-21.68
-23.56
-23.76
-21.90
-18.02
-12.59
-6.31
0.14
6.19
11.47
15.75
18.90
20.84
21.52
21.03
19.56
17.36
14.74
11.99
9.36
6.99
4.94
3.18
1.64
0.30
-0.86
-1.81
-2.56
-3.15
-3.71
-4.37
-5.25
-6.41
-7.83
-9.54
-11.53
-13.82
-16.27
-18.61
-20.34
-20.91
-19.85
-17.00
-12.56
-7.04
-1.05
4.83
10.20
14.84
18.61
21.40
23.05
23.42
22.49
20.40
17.47
14.15
10.92
8.13
5.92
4.22
2.83
1.51
0.17
-1.17
-2.40
-3.40
-4.14
-4.71
-5.29
-6.06
-7.17
-8.68
-10.60
-12.90
-15.49
-18.11
-20.35
-21.65
-21.47
-19.41
-15.44
-9.90
-3.41
3.29
9.54
14.88
19.09
22.09
23.89
24.51
23.99
22.44
20.02
17.03
13.79
10.63
7.80
5.47
3.63
2.22
1.11
0.16
-0.70
-1.56
-2.44
-3.40
-4.47
-5.67
-6.99
-8.37
-9.75
-11.14
-12.64
-14.39
-16.46
-18.69
-20.68
-21.80
-21.42
-19.16
-15.02
-9.45
-3.15
3.14
8.88
13.76
17.63
20.42
22.04
22.40
21.55
19.71
17.25
14.56
11.94
9.52
7.35
5.38
3.63
2.09
0.78
-0.35
-1.41
-2.42
-3.39
-4.25
-4.95
-5.52
-6.08
-6.83
-7.92
-9.48
-11.55
-14.10
-16.95
-19.73
-21.95
-23.02
-22.42
-19.91
-15.54
-9.75
-3.21
3.34
9.27
14.12
17.72
20.07
21.28
21.46
20.71
19.08
16.70
13.77
10.60
7.52
4.80
2.61
0.99
-0.12
-0.84
-1.32
-1.76
-2.28
-2.98
-3.84
-4.81
-5.86
-6.99
-8.32
-9.99
-12.11
-14.64
-17.36
-19.87
-21.64
-22.11
-20.88
-17.79
-13.03
-7.09
-0.62
5.70
11.34
15.97
19.43
21.66
22.68
22.59
21.56
19.84
17.67
15.24
12.65
9.97
7.25
4.61
2.23
0.25
-1.21
-2.20
-2.83
-3.27
-3.69
-4.16
-4.73
-5.40
-6.18
-7.14
-8.37
-10.04
-12.23
-14.94
-17.97
-20.88
-23.11
-24.04
-23.21
-20.41
-15.75
-9.67
-2.80
4.16
10.61
16.06
20.27
23.10
24.47
24.42
23.09
20.80
17.99
15.17
12.70
10.71
9.10
7.68
6.28
4.88
3.53
2.31
1.23
0.22
-0.81
-1.88
-2.95
-3.94
-4.81
-5.60
-6.44
-7.49
-8.93
-10.87
-13.34
-16.26
-19.41
-22.40
-24.72
-25.83
-25.27
-22.81
-18.45
-12.54
-5.66
1.46
8.09
13.72
18.06
21.10
22.96
23.79
23.75
22.91
21.35
19.20
16.65
13.92
11.22
8.72
6.51
4.64
3.13
2.00
1.23
0.77
0.50
0.24
-0.20
-1.01
-2.24
-3.81
-5.55
-7.26
-8.80
-10.26
-11.81
-13.70
-16.02
-18.62
-21.05
-22.71
-23.03
-21.60
-18.39
-13.68
-7.97
-1.87
4.09
9.48
14.04
17.58
19.97
21.13
21.06
19.87
17.79
15.16
12.29
9.47
6.86
4.56
2.55
0.83
-0.63
-1.86
-2.86
-3.64
-4.23
-4.69
-5.10
-5.58
-6.23
-7.14
-8.30
-9.72
-11.37
-13.27
-15.40
-17.58
-19.47
-20.49
-20.07
-17.81
-13.66
-8.02
-1.59
4.81
10.46
14.91
17.99
19.77
20.42
20.17
19.22
17.72
15.81
13.60
11.23
8.84
6.55
4.45
2.55
0.85
-0.70
-2.06
-3.21
-4.10
-4.71
-5.11
-5.42
-5.87
-6.67
-8.00
-9.94
-12.41
-15.24
-18.13
-20.73
-22.63
-23.43
-22.76
-20.41
-16.39
-10.99
-4.77
1.62
7.59
12.73
16.83
19.84
21.75
22.55
22.30
21.13
19.26
16.97
14.45
11.84
9.23
6.75
4.57
2.85
1.67
0.92
0.41
-0.10
-0.73
-1.48
-2.28
-3.14
-4.11
-5.33
-6.86
-8.66
-10.63
-12.69
-14.85
-17.19
-19.71
-22.20
-24.14
-24.88
-23.88
-20.87
-16.02
-9.83
-2.94
3.98
10.40
15.90
20.18
23.01
24.31
24.15
22.81
20.66
18.13
15.57
13.16
10.97
8.97
7.11
5.45
4.09
3.09
2.48
2.12
1.76
1.16
0.18
-1.20
-2.83
-4.52
-6.10
-7.49
-8.71
-9.91
-11.27
-13.02
-15.29
-17.99
-20.75
-22.97
-23.89
-22.92
-19.82
-14.79
-8.43
-1.51
5.20
11.15
16.00
19.58
21.83
22.72
22.35
20.90
18.67
16.01
13.22
10.49
7.91
5.52
3.36
1.50
0.02
-1.08
-1.88
-2.50
-3.08
-3.68
-4.31
-4.94
-5.59
-6.34
-7.28
-8.49
-10.04
-11.95
-14.21
-16.71
-19.16
-21.10
-21.97
-21.25
-18.68
-14.38
-8.77
-2.49
3.82
9.65
14.69
18.69
21.50
23.02
23.25
22.31
20.44
17.92
15.04
12.03
9.06
6.26
3.72
1.53
-0.25
-1.59
-2.50
-3.05
-3.35
-3.58
-3.89
-4.43
-5.27
-6.40
-7.81
-9.45
-11.34
-13.49
-15.85
-18.28
-20.41
-21.78
-21.85
-20.26
-16.91
-12.01
-6.04
0.39
6.69
12.41
17.19
20.83
23.19
24.25
24.09
22.87
20.88
18.40
15.72
13.05
10.54
8.28
6.35
4.77
3.50
2.48
1.62
0.82
0.05
-0.75
-1.58
-2.52
-3.60
-4.89
-6.42
-8.19
-10.17
-12.32
-14.63
-17.12
-19.73
-22.27
-24.38
-25.51
-25.16
-22.96
-18.87
-13.24
-6.64
0.23
6.76
12.55
17.35
21.01
23.44
24.56
24.38
23.03
20.81
18.08
15.23
12.56
10.20
8.15
6.35
4.73
3.27
1.97
0.88
-0.03
-0.80
-1.50
-2.22
-2.99
-3.86
-4.85
-5.98
-7.27
-8.81
-10.71
-13.07
-15.85
-18.78
-21.38
-22.95
-22.89
-20.85
-16.90
-11.54
-5.47
0.62
6.21
11.07
15.12
18.30
20.53
21.68
21.66
20.50
18.41
15.70
12.71
9.72
6.94
4.44
2.28
0.46
-0.98
-2.07
-2.85
-3.44
-3.95
-4.48
-5.08
-5.76
-6.50
-7.33
-8.34
-9.71
-11.59
-14.04
-16.93
-19.85
-22.18
-23.28
-22.60
-19.90
-15.31
-9.29
-2.54
4.20
10.29
15.28
18.98
21.40
22.68
22.98
22.38
20.93
18.69
15.83
12.68
9.63
7.03
5.05
3.63
2.57
1.61
0.61
-0.45
-1.50
-2.48
-3.38
-4.29
-5.27
-6.40
-7.65
-8.99
-10.41
-11.98
-13.79
-15.90
-18.22
-20.39
-21.88
-22.11
-20.65
-17.39
-12.59
-6.80
-0.62
5.42
10.96
15.75
19.62
22.42
24.03
24.39
23.58
21.80
19.34
16.52
13.65
10.97
8.63
6.68
5.09
3.80
2.75
1.87
1.09
0.34
-0.47
-1.38
-2.43
-3.58
-4.81
-6.11
-7.51
-9.10
-11.02
-13.38
-16.18
-19.22
-22.09
-24.15
-24.77
-23.45
-20.06
-14.89
-8.55
-1.78
4.76
10.60
15.50
19.31
21.96
23.37
23.54
22.57
20.64
18.08
15.20
12.31
9.63
7.31
5.40
3.89
2.70
1.74
0.91
0.15
-0.57
-1.25
-1.94
-2.69
-3.57
-4.65
-5.94
-7.40
-8.97
-10.68
-12.59
-14.76
-17.15
-19.48
-21.25
-21.87
-20.88
-18.11
-13.76
-8.33
-2.46
3.29
8.51
12.95
16.48
18.98
20.40
20.70
19.92
18.20
15.79
13.01
10.18
7.59
5.42
3.69
2.31
1.13
0.02
-1.05
-2.03
-2.87
-3.54
-4.12
-4.78
-5.63
-6.75
-8.10
-9.61
-11.25
-13.05
-15.07
-17.25
-19.36
-20.92
-21.35
-20.15
-17.09
-12.33
-6.37
0.11
6.41
11.97
16.46
19.70
21.66
22.39
22.00
20.68
18.66
16.23
13.66
11.16
8.85
6.79
4.98
3.38
1.99
0.79
-0.24
-1.10
-1.82
-2.46
-3.12
-3.89
-4.86
-6.08
-7.53
-9.21
-11.11
-13.30
-15.81
-18.59
-21.34
-23.55
-24.54
-23.78
-21.01
-16.39
-10.42
-3.78
2.89
9.12
14.57
19.00
22.22
24.08
24.55
23.73
21.92
19.44
16.63
13.75
11.01
8.52
6.38
4.65
3.36
2.47
1.90
1.54
1.19
0.72
-0.02
-1.05
-2.30
-3.66
-5.03
-6.40
-7.86
-9.53
-11.55
-13.94
-16.61
-19.31
-21.60
-22.96
-22.83
-20.88
-17.08
-11.78
-5.64
0.66
6.54
11.71
16.04
19.51
22.02
23.43
23.58
22.44
20.19
17.16
13.80
10.51
7.60
5.20
3.34
1.95
0.94
0.22
-0.33
-0.78
-1.26
-1.83
-2.54
-3.39
-4.33
-5.31
-6.35
-7.53
-9.06
-11.12
-13.78
-16.84
-19.80
-21.95
-22.56
-21.15
-17.61
-12.32
-5.97
0.60
6.68
11.76
15.61
18.18
19.52
19.71
18.83
17.06
14.70
12.10
9.59
7.38
5.52
3.87
2.30
0.72
-0.86
-2.37
-3.74
-4.94
-5.95
-6.74
-7.30
-7.64
-7.90
-8.31
-9.16
-10.66
-12.83
-15.42
-17.98
-19.90
-20.59
-19.63
-16.91
-12.64
-7.35
-1.67
3.83
8.78
13.03
16.51
19.17
20.85
21.39
20.72
18.95
16.37
13.41
10.44
7.74
5.37
3.29
1.42
-0.26
-1.69
-2.77
-3.45
-3.77
-3.87
-4.02
-4.43
-5.25
-6.51
-8.15
-10.11
-12.38
-14.94
-17.65
-20.17
-21.94
-22.34
-20.91
-17.53
-12.48
-6.35
0.17
6.49
12.15
16.86
20.42
22.70
23.67
23.42
22.17
20.22
17.86
15.31
12.68
10.07
7.54
5.19
3.09
1.32
-0.09
-1.14
-1.88
-2.38
-2.73
-3.11
-3.69
-4.61
-5.93
-7.61
-9.56
-11.70
-14.04
-16.58
-19.20
-21.54
-23.02
-22.98
-20.96
-16.88
-11.14
-4.46
2.36
8.70
14.21
18.74
22.23
24.56
25.57
25.18
23.48
20.74
17.43
14.04
10.96
8.40
6.36
4.74
3.36
2.08
0.86
-0.30
-1.34
-2.24
-3.03
-3.77
-4.51
-5.30
-6.20
-7.25
-8.55
-10.21
-12.34
-14.89
-17.63
-20.07
-21.58
-21.56
-19.60
-15.73
-10.33
-4.08
2.31
8.19
13.13
16.92
19.49
20.83
20.98
20.03
18.18
15.69
12.87
10.01
7.36
5.07
3.18
1.61
0.24
-1.09
-2.43
-3.78
-4.99
-5.87
-6.32
-6.40
-6.31
-6.38
-6.90
-8.09
-9.97
-12.44
-15.23
-17.95
-20.12
-21.20
-20.75
-18.49
-14.49
-9.10
-2.88
3.50
9.43
14.45
18.27
20.75
21.94
21.96
21.07
19.51
17.50
15.21
12.71
10.08
7.43
4.91
2.66
0.78
-0.71
-1.87
-2.81
-3.61
-4.34
-5.00
-5.59
-6.15
-6.73
-7.48
-8.53
-10.00
-11.97
-14.41
-17.14
-19.80
-21.88
-22.80
-22.02
-19.23
-14.49
-8.24
-1.23
5.69
11.78
16.58
19.98
22.08
23.09
23.15
22.32
20.66
18.28
15.43
12.44
9.62
7.21
5.30
3.84
2.72
1.84
1.11
0.43
-0.27
-1.09
-2.07
-3.21
-4.44
-5.68
-6.85
-7.96
-9.10
-10.42
-12.14
-14.41
-17.21
-20.30
-23.14
-25.01
-25.19
-23.21
-19.07
-13.23
-6.45
0.41
6.74
12.19
16.63
20.03
22.32
23.43
23.31
22.12
20.20
17.95
15.70
13.59
11.55
9.45
7.27
5.18
3.42
2.22
1.63
1.52
1.59
1.58
1.26
0.55
-0.52
-1.89
-3.48
-5.17
-6.88
-8.56
-10.22
-11.94
-13.86
-16.11
-18.71
-21.48
-24.01
-25.72
-26.01
-24.43
-20.89
-15.65
-9.31
-2.57
3.91
9.69
14.53
18.30
20.89
22.22
22.24
21.06
18.98
16.45
13.89
11.61
9.71
8.08
6.51
4.88
3.17
1.53
0.15
-0.87
-1.52
-1.97
-2.38
-2.87
-3.51
-4.24
-5.01
-5.84
-6.82
-8.10
-9.85
-12.13
-14.86
-17.75
-20.33
-22.06
-22.40
-21.01
-17.86
-13.18
-7.47
-1.29
4.83
10.47
15.33
19.19
21.84
23.15
23.10
21.80
19.54
16.71
13.73
10.92
8.46
6.39
4.65
3.18
1.92
0.88
0.08
-0.51
-0.99
-1.53
-2.27
-3.31
-4.57
-5.94
-7.27
-8.51
-9.69
-10.99
-12.58
-14.60
-17.00
-19.51
-21.68
-22.91
-22.66
-20.60
-16.74
-11.44
-5.25
1.21
7.39
12.92
17.51
20.98
23.15
23.96
23.47
21.91
19.61
16.93
14.15
11.45
8.93
6.62
4.59
2.90
1.58
0.62
-0.12
-0.79
-1.53
-2.37
-3.25
-4.07
-4.78
-5.48
-6.34
-7.55
-9.26
-11.47
-14.10
-17.00
-19.95
-22.62
-24.53
-25.10
-23.84
-20.51
-15.31
-8.83
-1.90
4.68
10.32
14.73
17.87
19.88
20.89
21.05
20.44
19.12
17.16
14.67
11.84
8.93
6.24
3.99
2.26
1.00
0.05
-0.73
-1.43
-1.99
-2.39
-2.61
-2.77
-3.04
-3.62
-4.60
-6.02
-7.81
-9.95
-12.41
-15.13
-17.93
-20.46
-22.18
-22.51
-20.99
-17.51
-12.32
-6.00
0.69
7.08
12.67
17.17
20.49
22.63
23.61
23.48
22.32
20.27
17.58
14.52
11.42
8.60
6.26
4.49
3.21
2.26
1.43
0.58
-0.32
-1.25
-2.16
-3.03
-3.93
-4.92
-6.05
-7.26
-8.51
-9.78
-11.17
-12.90
-15.16
-17.95
-20.97
-23.58
-25.00
-24.52
-21.76
-16.82
-10.27
-2.97
4.19
10.52
15.64
19.49
22.11
23.62
24.06
23.50
22.08
20.06
17.77
15.46
13.24
11.09
8.93
6.74
4.66
2.89
1.62
0.86
0.48
0.25
-0.07
-0.62
-1.48
-2.63
-4.06
-5.70
-7.48
-9.33
-11.22
-13.19
-15.36
-17.84
-20.58
-23.29
-25.43
-26.30
-25.32
-22.22
-17.15
-10.63
-3.39
3.81
10.35
15.80
19.93
22.64
23.93
23.90
22.78
20.83
18.37
15.71
13.07
10.62
8.44
6.55
4.93
3.54
2.36
1.39
0.64
0.09
-0.35
-0.84
-1.52
-2.49
-3.74
-5.16
-6.60
-7.98
-9.34
-10.85
-12.72
-15.09
-17.88
-20.72
-23.04
-24.15
-23.48
-20.76
-16.11
-10.02
-3.21
3.58
9.75
14.94
18.99
21.87
23.62
24.24
23.78
22.34
20.10
17.32
14.28
11.28
8.52
6.17
4.28
2.85
1.81
1.04
0.43
-0.13
-0.71
-1.34
-2.08
-2.96
-4.04
-5.36
-6.96
-8.87
-11.10
-13.66
-16.49
-19.37
-21.89
-23.48
-23.52
-21.62
-17.68
-12.03
-5.30
1.71
8.29
13.91
18.32
21.48
23.47
24.39
24.29
23.19
21.16
18.34
15.01
11.54
8.31
5.59
3.52
2.06
1.11
0.49
0.06
-0.32
-0.73
-1.24
-1.87
-2.66
-3.60
-4.72
-6.02
-7.50
-9.15
-10.99
-13.08
-15.46
-18.02
-20.41
-22.02
-22.19
-20.42
-16.67
-11.33
-5.12
1.20
7.05
12.10
16.19
19.22
21.06
21.60
20.84
18.98
16.35
13.41
10.50
7.89
5.63
3.70
2.03
0.55
-0.77
-1.93
-2.93
-3.79
-4.55
-5.24
-5.93
-6.65
-7.47
-8.46
-9.75
-11.46
-13.66
-16.21
-18.78
-20.83
-21.72
-20.97
-18.36
-14.03
-8.45
-2.27
3.85
9.37
13.96
17.44
19.74
20.90
20.98
20.10
18.44
16.19
13.60
10.89
8.30
5.98
4.00
2.31
0.84
-0.55
-1.92
-3.25
-4.46
-5.41
-6.05
-6.41
-6.67
-7.09
-7.92
-9.40
-11.61
-14.44
-17.56
-20.42
-22.41
-22.89
-21.47
-18.04
-12.87
-6.53
0.25
6.78
12.53
17.19
20.62
22.81
23.79
23.61
22.41
20.37
17.78
14.90
11.99
9.24
6.78
4.70
3.08
1.93
1.18
0.67
0.18
-0.45
-1.32
-2.37
-3.50
-4.57
-5.53
-6.42
-7.36
-8.55
-10.23
-12.56
-15.54
-18.92
-22.15
-24.47
-25.14
-23.65
-19.93
-14.36
-7.66
-0.63
6.01
11.82
16.55
20.16
22.61
23.91
24.07
23.17
21.35
18.85
15.97
13.00
10.20
7.81
5.93
4.57
3.57
2.76
1.96
1.09
0.14
-0.84
-1.80
-2.71
-3.62
-4.56
-5.60
-6.80
-8.23
-9.98
-12.14
-14.70
-17.55
-20.35
-22.60
-23.71
-23.15
-20.63
-16.23
-10.37
-3.75
2.88
8.91
13.94
17.81
20.48
21.95
22.23
21.35
19.39
16.59
13.28
9.90
6.84
4.40
2.64
1.48
0.69
0.05
-0.60
-1.30
-2.02
-2.75
-3.53
-4.42
-5.49
-6.73
-8.08
-9.43
-10.76
-12.16
-13.86
-16.00
-18.50
-20.92
-22.56
-22.69
-20.83
-16.94
-11.46
-5.09
1.43
7.48
12.73
16.98
20.16
22.20
23.09
22.85
21.60
19.51
16.84
13.87
10.87
8.07
5.64
3.66
2.14
1.01
0.17
-0.46
-0.99
-1.49
-2.05
-2.76
-3.72
-4.97
-6.56
-8.43
-10.53
-12.74
-15.00
-17.25
-19.37
-21.13
-22.16
-21.99
-20.22
-16.70
-11.63
-5.52
0.95
7.14
12.60
17.11
20.56
22.90
24.07
24.01
22.79
20.63
17.90
14.98
12.18
9.68
7.49
5.60
3.99
2.69
1.72
1.06
0.57
0.08
-0.61
-1.60
-2.87
-4.31
-5.75
-7.06
-8.20
-9.25
-10.39
-11.84
-13.84
-16.48
-19.60
-22.75
-25.22
-26.21
-25.12
-21.71
-16.28
-9.47
-2.15
4.90
11.10
16.16
19.98
22.55
23.91
24.09
23.21
21.45
19.09
16.42
13.73
11.21
8.92
6.84
4.91
3.11
1.49
0.14
-0.86
-1.51
-1.92
-2.27
-2.71
-3.34
-4.18
-5.20
-6.38
-7.75
-9.40
-11.44
-13.88
-16.62
-19.30
-21.39
-22.25
-21.39
-18.61
-14.10
-8.41
-2.21
3.84
9.26
13.79
17.28
19.62
20.74
20.62
19.39
17.31
14.75
12.06
9.47
7.10
4.91
2.88
0.97
-0.76
-2.23
-3.37
-4.18
-4.71
-5.08
-5.42
-5.86
-6.49
-7.35
-8.50
-10.01
-11.94
-14.28
-16.86
-19.30
-21.06
-21.57
-20.45
-17.62
-13.34
-8.09
-2.36
3.42
8.93
13.89
18.00
20.98
22.61
22.83
21.77
19.71
17.02
14.03
11.06
8.34
6.03
4.17
2.69
1.44
0.25
-0.95
-2.15
-3.27
-4.29
-5.19
-6.07
-7.01
-8.03
-9.13
-10.32
-11.70
-13.41
-15.62
-18.22
-20.82
-22.71
-23.06
-21.29
-17.28
-11.41
-4.47
2.63
9.17
14.71
19.05
22.12
23.87
24.28
23.40
21.48
18.87
16.02
13.24
10.69
8.37
6.23
4.27
2.57
1.20
0.17
-0.61
-1.30
-2.02
-2.85
-3.77
-4.74
-5.77
-6.92
-8.25
-9.85
-11.79
-14.12
-16.81
-19.66
-22.29
-24.10
-24.47
-22.94
-19.39
-14.09
-7.62
-0.69
6.03
12.00
16.88
20.45
22.67
23.61
23.43
22.36
20.61
18.36
15.77
13.00
10.21
7.57
5.24
3.24
1.55
0.12
-1.09
-2.09
-2.85
-3.38
-3.77
-4.21
-4.92
-6.06
-7.67
-9.68
-11.94
-14.35
-16.80
-19.16
-21.17
-22.39
-22.28
-20.42
-16.70
-11.43
-5.26
1.06
6.89
11.87
15.93
19.08
21.30
22.45
22.39
21.02
18.46
15.09
11.46
8.12
5.44
3.52
2.21
1.20
0.22
-0.90
-2.15
-3.45
-4.66
-5.72
-6.62
-7.45
-8.30
-9.30
-10.59
-12.29
-14.40
-16.79
-19.08
-20.80
-21.44
-20.60
-18.09
-14.01
-8.67
-2.56
3.75
9.75
14.97
19.11
21.95
23.38
23.33
21.88
19.27
15.92
12.36
9.12
6.52
4.61
3.23
2.08
0.92
-0.36
-1.76
-3.19
-4.50
-5.59
-6.40
-7.00
-7.53
-8.28
-9.49
-11.36
-13.82
-16.60
-19.16
-20.88
-21.16
-19.65
-16.33
-11.53
-5.83
0.10
5.73
10.71
14.94
18.40
21.01
22.66
23.17
22.47
20.65
18.00
14.91
11.75
8.81
6.21
4.00
2.15
0.62
-0.62
-1.59
-2.35
-2.97
-3.54
-4.16
-4.92
-5.93
-7.28
-9.07
-11.34
-14.00
-16.78
-19.20
-20.67
-20.64
-18.77
-15.08
-9.94
-3.90
2.39
8.42
13.79
18.21
21.45
23.31
23.69
22.67
20.50
17.64
14.57
11.68
9.17
7.02
5.08
3.16
1.18
-0.80
-2.56
-3.89
-4.65
-4.91
-4.89
-4.96
-5.45
-6.60
-8.47
-11.01
-13.95
-16.90
-19.33
-20.61
-20.20
-17.76
-13.38
-7.53
-0.99
5.41
11.02
15.47
18.70
20.76
21.74
21.68
20.61
18.67
16.08
13.17
10.27
7.60
5.25
3.12
1.12
-0.81
-2.63
-4.17
-5.30
-5.98
-6.32
-6.55
-6.96
-7.79
-9.17
-11.12
-13.52
-16.13
-18.57
-20.34
-20.93
-19.92
-17.18
-12.87
-7.45
-1.55
4.20
9.35
13.59
16.81
18.95
19.98
19.91
18.78
16.76
14.08
11.09
8.07
5.25
2.69
0.38
-1.73
-3.65
-5.28
-6.49
-7.15
-7.29
-7.10
-6.87
-7.00
-7.79
-9.41
-11.78
-14.57
-17.27
-19.28
-20.02
-19.13
-16.48
-12.28
-6.94
-1.03
4.87
10.27
14.76
18.10
20.17
21.00
20.72
19.51
17.62
15.26
12.65
9.93
7.22
4.59
2.07
-0.25
-2.30
-3.97
-5.12
-5.75
-5.96
-6.00
-6.22
-6.95
-8.40
-10.61
-13.38
-16.34
-18.97
-20.68
-21.01
-19.64
-16.57
-12.07
-6.60
-0.74
5.02
10.29
14.83
18.46
21.09
22.65
23.09
22.43
20.76
18.30
15.32
12.17
9.16
6.50
4.28
2.48
1.01
-0.25
-1.35
-2.32
-3.18
-3.98
-4.78
-5.67
-6.72
-7.97
-9.45
-11.23
-13.37
-15.88
-18.58
-21.06
-22.73
-22.93
-21.22
-17.51
-12.10
-5.57
1.39
8.15
14.23
19.29
23.08
25.43
26.26
25.68
23.91
21.34
18.36
15.33
12.46
9.84
7.49
5.40
3.60
2.17
1.13
0.46
0.00
-0.48
-1.21
-2.31
-3.72
-5.26
-6.68
-7.86
-8.85
-9.88
-11.28
-13.33
-16.13
-19.44
-22.71
-25.20
-26.11
-24.92
-21.47
-16.07
-9.31
-1.94
5.37
12.09
17.84
22.30
25.25
26.61
26.46
25.08
22.91
20.35
17.73
15.21
12.81
10.53
8.37
6.39
4.68
3.33
2.37
1.75
1.37
1.09
0.74
0.18
-0.66
-1.86
-3.37
-5.10
-6.92
-8.68
-10.34
-11.98
-13.81
-16.09
-18.92
-22.10
-25.01
-26.83
-26.77
-24.38
-19.72
-13.36
-6.17
1.00
7.50
12.97
17.29
20.44
22.39
23.13
22.71
21.29
19.12
16.52
13.77
11.09
8.59
6.38
4.53
3.10
2.09
1.43
0.95
0.47
-0.16
-0.99
-1.96
-2.99
-4.03
-5.07
-6.13
-7.25
-8.48
-9.90
-11.64
-13.84
-16.52
-19.48
-22.18
-23.86
-23.82
-21.63
-17.35
-11.53
-4.96
1.56
7.47
12.46
16.39
19.19
20.75
21.03
20.11
18.28
15.94
13.52
11.27
9.23
7.27
5.26
3.18
1.12
-0.74
-2.24
-3.34
-4.08
-4.55
-4.85
-5.08
-5.35
-5.78
-6.51
-7.64
-9.24
-11.30
-13.78
-16.54
-19.33
-21.67
-22.98
-22.65
-20.30
-15.95
-10.04
-3.34
3.34
9.37
14.39
18.29
21.05
22.69
23.19
22.58
20.98
18.61
15.77
12.78
9.87
7.20
4.85
2.85
1.17
-0.20
-1.35
-2.32
-3.13
-3.80
-4.35
-4.81
-5.29
-5.92
-6.83
-8.13
-9.91
-12.18
-14.93
-17.96
-20.91
-23.21
-24.28
-23.63
-21.11
-16.89
-11.40
-5.17
1.31
7.61
13.35
18.16
21.71
23.80
24.42
23.79
22.24
20.12
17.68
15.09
12.47
9.93
7.61
5.62
4.03
2.82
1.91
1.16
0.42
-0.40
-1.38
-2.51
-3.72
-4.91
-6.01
-7.00
-7.96
-9.00
-10.32
-12.06
-14.34
-17.12
-20.18
-23.10
-25.28
-26.09
-25.03
-21.93
-16.95
-10.63
-3.67
3.21
9.41
14.59
18.61
21.49
23.34
24.21
24.16
23.19
21.37
18.86
15.90
12.75
9.67
6.84
4.38
2.38
0.90
-0.01
-0.40
-0.45
-0.39
-0.53
-1.06
-2.09
-3.54
-5.23
-6.95
-8.53
-9.90
-11.19
-12.64
-14.54
-17.02
-19.96
-22.92
-25.21
-26.08
-25.00
-21.81
-16.72
-10.28
-3.18
3.96
10.58
16.31
20.83
23.94
25.50
25.56
24.35
22.27
19.80
17.33
15.10
13.11
11.21
9.23
7.08
4.88
2.85
1.25
0.23
-0.25
-0.41
-0.53
-0.86
-1.54
-2.58
-3.88
-5.34
-6.84
-8.34
-9.84
-11.43
-13.24
-15.39
-17.90
-20.62
-23.15
-24.94
-25.43
-24.25
-21.32
-16.84
-11.23
-4.99
1.38
7.44
12.80
17.16
20.35
22.31
23.06
22.75
21.51
19.54
17.01
14.14
11.20
8.42
6.02
4.10
2.66
1.59
0.74
-0.01
-0.76
-1.54
-2.37
-3.25
-4.21
-5.28
-6.43
-7.64
-8.86
-10.14
-11.63
-13.48
-15.72
-18.14
-20.24
-21.35
-20.90
-18.59
-14.54
-9.22
-3.24
2.78
8.38
13.27
17.23
20.11
21.76
22.12
21.21
19.22
16.51
13.51
10.63
8.12
6.03
4.24
2.50
0.65
-1.36
-3.38
-5.20
-6.62
-7.54
-8.04
-8.30
-8.57
-9.12
-10.17
-11.87
-14.19
-16.93
-19.68
-21.85
-22.84
-22.15
-19.60
-15.37
-9.93
-3.93
2.03
7.54
12.33
16.26
19.20
21.02
21.63
21.06
19.51
17.34
14.90
12.46
10.12
7.84
5.56
3.20
0.79
-1.59
-3.79
-5.64
-6.99
-7.79
-8.10
-8.17
-8.32
-8.93
-10.27
-12.43
-15.29
-18.47
-21.45
-23.60
-24.35
-23.29
-20.31
-15.65
-9.77
-3.33
3.09
9.01
14.11
18.20
21.18
23.01
23.73
23.43
22.24
20.32
17.79
14.84
11.70
8.63
5.90
3.69
2.03
0.82
-0.07
-0.79
-1.41
-2.01
-2.69
-3.56
-4.71
-6.18
-7.93
-9.92
-12.17
-14.70
-17.48
-20.30
-22.72
-24.15
-24.07
-22.12
-18.33
-13.01
-6.72
-0.03
6.50
12.49
17.63
21.76
24.73
26.50
27.06
26.50
25.01
22.80
20.11
17.12
13.97
10.81
7.82
5.21
3.18
1.82
1.05
0.66
0.37
-0.06
-0.74
-1.71
-2.88
-4.16
-5.45
-6.72
-8.00
-9.45
-11.25
-13.61
-16.61
-20.08
-23.59
-26.43
-27.82
-27.13
-24.06
-18.77
-11.83
-4.02
3.82
11.03
17.16
21.94
25.27
27.15
27.65
26.99
25.45
23.39
21.11
18.79
16.48
14.15
11.78
9.43
7.23
5.35
3.91
2.95
2.41
2.12
1.87
1.43
0.63
-0.60
-2.23
-4.11
-6.07
-7.98
-9.78
-11.54
-13.44
-15.64
-18.27
-21.22
-24.19
-26.63
-27.88
-27.36
-24.79
-20.23
-14.07
-6.93
0.52
7.70
14.10
19.38
23.27
25.62
26.42
25.83
24.09
21.55
18.54
15.39
12.39
9.73
7.51
5.71
4.24
2.96
1.78
0.67
-0.36
-1.31
-2.20
-3.09
-4.02
-4.97
-5.91
-6.79
-7.70
-8.78
-10.29
-12.44
-15.27
-18.54
-21.72
-24.10
-24.95
-23.80
-20.56
-15.55
-9.36
-2.68
3.86
9.81
14.85
18.77
21.44
22.86
23.14
22.48
21.18
19.42
17.34
14.98
12.40
9.71
7.07
4.68
2.70
1.21
0.17
-0.54
-1.09
-1.67
-2.42
-3.42
-4.67
-6.11
-7.67
-9.35
-11.18
-13.27
-15.64
-18.21
-20.70
-22.70
-23.67
-23.16
-20.87
-16.78
-11.19
-4.61
2.28
8.86
14.62
19.23
22.53
24.47
25.09
24.52
22.96
20.67
17.94
15.04
12.19
9.58
7.31
5.47
4.09
3.12
2.45
1.92
1.36
0.61
-0.40
-1.69
-3.16
-4.68
-6.10
-7.36
-8.51
-9.74
-11.30
-13.43
-16.23
-19.52
-22.86
-25.57
-26.95
-26.45
-23.81
-19.17
-13.00
-5.95
1.25
8.02
13.91
18.64
22.10
24.26
25.20
25.06
24.08
22.47
20.47
18.26
15.96
13.62
11.27
8.94
6.70
4.72
3.14
2.07
1.48
1.23
1.03
0.62
-0.19
-1.41
-2.98
-4.72
-6.50
-8.24
-9.93
-11.63
-13.43
-15.43
-17.70
-20.26
-22.95
-25.43
-27.15
-27.50
-26.00
-22.45
-17.11
-10.50
-3.33
3.76
10.28
15.92
20.44
23.63
25.33
25.51
24.35
22.24
19.63
16.96
14.46
12.22
10.17
8.22
6.35
4.62
3.18
2.13
1.45
1.00
0.55
-0.11
-1.09
-2.33
-3.70
-5.04
-6.29
-7.49
-8.74
-10.15
-11.84
-13.91
-16.40
-19.19
-21.95
-24.10
-25.01
-24.17
-21.45
-17.09
-11.63
-5.67
0.32
6.06
11.32
15.89
19.44
21.66
22.38
21.68
19.87
17.41
14.71
12.06
9.61
7.43
5.52
3.90
2.55
1.44
0.48
-0.41
-1.33
-2.32
-3.39
-4.50
-5.58
-6.60
-7.56
-8.50
-9.54
-10.84
-12.58
-14.84
-17.49
-20.12
-22.12
-22.80
-21.65
-18.50
-13.61
-7.56
-1.07
5.22
10.87
15.62
19.32
21.87
23.17
23.22
22.13
20.16
17.66
14.99
12.45
10.19
8.21
6.48
4.90
3.47
2.17
0.99
-0.11
-1.23
-2.45
-3.76
-5.09
-6.26
-7.19
-7.91
-8.64
-9.71
-11.41
-13.85
-16.91
-20.19
-23.14
-25.10
-25.51
-24.00
-20.50
-15.28
-8.92
-2.10
4.51
10.40
15.27
18.97
21.48
22.84
23.10
22.38
20.85
18.74
16.26
13.65
11.09
8.72
6.65
4.92
3.53
2.41
1.50
0.67
-0.18
-1.11
-2.18
-3.37
-4.63
-5.90
-7.14
-8.36
-9.67
-11.20
-13.11
-15.48
-18.22
-20.98
-23.24
-24.38
-23.88
-21.49
-17.32
-11.79
-5.49
0.95
7.03
12.38
16.78
20.09
22.26
23.29
23.23
22.20
20.39
17.98
15.22
12.34
9.60
7.19
5.24
3.74
2.58
1.59
0.65
-0.32
-1.31
-2.30
-3.25
-4.21
-5.21
-6.32
-7.55
-8.95
-10.54
-12.40
-14.56
-17.00
-19.53
-21.74
-23.12
-23.11
-21.36
-17.77
-12.64
-6.50
-0.03
6.10
11.39
15.54
18.45
20.16
20.77
20.44
19.34
17.61
15.43
12.95
10.36
7.80
5.41
3.27
1.40
-0.18
-1.49
-2.50
-3.21
-3.67
-3.98
-4.31
-4.82
-5.64
-6.81
-8.31
-10.10
-12.16
-14.46
-16.91
-19.27
-21.12
-21.99
-21.44
-19.27
-15.56
-10.65
-5.03
0.79
6.41
11.49
15.84
19.31
21.75
23.03
23.07
21.90
19.71
16.82
13.63
10.51
7.74
5.44
3.59
2.13
0.97
-0.02
-0.94
-1.88
-2.94
-4.16
-5.49
-6.85
-8.12
-9.29
-10.42
-11.66
-13.20
-15.19
-17.59
-20.17
-22.43
-23.73
-23.45
-21.22
-17.04
-11.27
-4.57
2.33
8.79
14.36
18.83
22.07
24.08
24.88
24.53
23.19
21.09
18.52
15.78
13.10
10.61
8.33
6.24
4.34
2.63
1.13
-0.15
-1.24
-2.22
-3.16
-4.09
-5.02
-5.94
-6.86
-7.84
-9.01
-10.53
-12.57
-15.22
-18.39
-21.69
-24.52
-26.12
-25.86
-23.42
-18.92
-12.88
-6.03
0.93
7.48
13.29
18.14
21.85
24.27
25.32
25.08
23.82
21.91
19.67
17.32
14.92
12.46
9.95
7.49
5.25
3.36
1.85
0.66
-0.32
-1.20
-2.02
-2.78
-3.47
-4.16
-4.93
-5.89
-7.08
-8.53
-10.20
-12.09
-14.24
-16.65
-19.26
-21.79
-23.73
-24.45
-23.41
-20.32
-15.33
-9.01
-2.14
4.48
10.29
14.97
18.48
20.88
22.22
22.56
21.94
20.45
18.25
15.58
12.74
10.00
7.56
5.50
3.80
2.38
1.15
0.05
-0.94
-1.83
-2.68
-3.52
-4.40
-5.32
-6.27
-7.22
-8.23
-9.47
-11.15
-13.45
-16.31
-19.37
-21.99
-23.41
-23.03
-20.58
-16.22
-10.45
-3.91
2.74
8.96
14.35
18.62
21.61
23.27
23.68
23.05
21.62
19.64
17.32
14.81
12.24
9.76
7.47
5.43
3.63
2.01
0.52
-0.86
-2.12
-3.21
-4.11
-4.84
-5.51
-6.23
-7.16
-8.39
-10.00
-12.01
-14.40
-17.10
-19.88
-22.36
-24.01
-24.24
-22.60
-18.93
-13.48
-6.86
0.15
6.83
12.64
17.36
20.93
23.38
24.77
25.10
24.38
22.68
20.19
17.20
14.04
11.03
8.36
6.10
4.21
2.60
1.18
-0.04
-1.04
-1.81
-2.39
-2.90
-3.50
-4.31
-5.36
-6.60
-7.96
-9.43
-11.11
-13.14
-15.57
-18.25
-20.75
-22.43
-22.64
-20.93
-17.26
-12.01
-5.86
0.43
6.28
11.34
15.52
18.79
21.10
22.34
22.43
21.38
19.35
16.62
13.49
10.27
7.19
4.42
2.11
0.34
-0.89
-1.71
-2.28
-2.77
-3.30
-3.95
-4.75
-5.72
-6.83
-8.06
-9.35
-10.70
-12.21
-13.99
-16.11
-18.47
-20.64
-22.01
-21.90
-19.87
-15.90
-10.39
-4.09
2.21
7.85
12.48
16.03
18.60
20.28
21.10
21.02
19.98
18.04
15.40
12.40
9.42
6.74
4.49
2.65
1.06
-0.40
-1.81
-3.13
-4.26
-5.11
-5.68
-6.11
-6.61
-7.37
-8.57
-10.26
-12.41
-14.93
-17.63
-20.22
-22.23
-23.08
-22.23
-19.37
-14.59
-8.39
-1.59
4.98
10.71
15.33
18.87
21.42
23.03
23.62
23.06
21.36
18.72
15.55
12.32
9.40
6.95
4.93
3.20
1.60
0.05
-1.40
-2.65
-3.63
-4.37
-4.97
-5.64
-6.52
-7.71
-9.21
-11.04
-13.20
-15.70
-18.41
-20.97
-22.79
-23.21
-21.70
-18.14
-12.86
-6.55
0.04
6.26
11.74
16.32
19.89
22.38
23.68
23.78
22.77
20.95
18.67
16.27
13.94
11.68
9.40
7.02
4.56
2.14
-0.03
-1.75
-2.93
-3.59
-3.88
-3.99
-4.15
-4.55
-5.32
-6.56
-8.31
-10.56
-13.27
-16.31
-19.42
-22.20
-24.09
-24.53
-23.10
-19.68
-14.50
-8.12
-1.23
5.53
11.67
16.90
21.09
24.12
25.93
26.47
25.78
24.03
21.51
18.57
15.55
12.69
10.08
7.77
5.74
4.03
2.73
1.86
1.36
1.02
0.54
-0.30
-1.55
-3.07
-4.58
-5.88
-6.95
-7.97
-9.20
-10.88
-13.10
-15.83
-18.91
-22.07
-24.89
-26.80
-27.20
-25.60
-21.81
-16.06
-9.00
-1.43
5.82
12.15
17.17
20.73
22.84
23.62
23.28
22.10
20.35
18.26
15.99
13.65
11.30
9.00
6.80
4.77
2.99
1.51
0.38
-0.42
-0.99
-1.44
-1.92
-2.53
-3.32
-4.30
-5.45
-6.75
-8.17
-9.71
-11.42
-13.34
-15.53
-17.97
-20.43
-22.45
-23.45
-22.87
-20.39
-16.06
-10.30
-3.73
3.01
9.36
14.94
19.44
22.67
24.49
24.88
23.96
21.97
19.25
16.18
13.06
10.12
7.48
5.17
3.22
1.66
0.53
-0.15
-0.49
-0.73
-1.14
-1.95
-3.18
-4.66
-6.15
-7.46
-8.59
-9.75
-11.22
-13.21
-15.81
-18.83
-21.86
-24.30
-25.48
-24.86
-22.13
-17.39
-11.11
-4.02
3.14
9.74
15.35
19.74
22.80
24.51
24.91
24.18
22.56
20.35
17.84
15.27
12.77
10.39
8.13
5.97
3.94
2.15
0.72
-0.26
-0.83
-1.17
-1.53
-2.14
-3.11
-4.39
-5.82
-7.30
-8.78
-10.33
-12.11
-14.23
-16.78
-19.65
-22.52
-24.87
-26.04
-25.46
-22.85
-18.35
-12.45
-5.84
0.83
7.10
12.69
17.43
21.14
23.65
24.81
24.65
23.32
21.10
18.32
15.33
12.40
9.74
7.44
5.54
3.99
2.74
1.76
1.03
0.47
-0.07
-0.78
-1.76
-3.01
-4.37
-5.64
-6.69
-7.58
-8.49
-9.65
-11.26
-13.47
-16.24
-19.38
-22.45
-24.80
-25.71
-24.59
-21.23
-15.90
-9.25
-2.11
4.79
10.90
15.90
19.67
22.15
23.37
23.40
22.43
20.65
18.34
15.73
13.06
10.49
8.10
5.90
3.87
2.02
0.40
-0.90
-1.80
-2.33
-2.65
-2.96
-3.44
-4.16
-5.13
-6.31
-7.70
-9.39
-11.47
-13.99
-16.87
-19.87
-22.53
-24.32
-24.67
-23.18
-19.76
-14.67
-8.48
-1.88
4.49
10.22
15.10
19.04
22.02
23.97
24.81
24.52
23.15
20.88
17.96
14.67
11.34
8.25
5.63
3.64
2.29
1.49
1.06
0.73
0.25
-0.59
-1.88
-3.56
-5.43
-7.22
-8.70
-9.82
-10.71
-11.65
-12.94
-14.84
-17.42
-20.55
-23.75
-26.34
-27.48
-26.43
-22.84
-16.93
-9.44
-1.40
6.17
12.64
17.71
21.42
23.87
25.15
25.29
24.40
22.69
20.51
18.16
15.80
13.45
11.04
8.50
5.93
3.49
1.43
-0.11
-1.08
-1.60
-1.86
-2.09
-2.48
-3.13
-4.07
-5.26
-6.67
-8.24
-9.98
-11.97
-14.30
-17.02
-20.05
-23.06
-25.48
-26.64
-25.97
-23.21
-18.53
-12.44
-5.62
1.31
7.85
13.67
18.51
22.17
24.46
25.29
24.75
23.09
20.68
17.91
15.11
12.46
10.02
7.80
5.76
3.92
2.34
1.12
0.30
-0.19
-0.52
-0.92
-1.58
-2.57
-3.81
-5.17
-6.50
-7.74
-8.96
-10.32
-12.02
-14.22
-16.92
-19.92
-22.76
-24.74
-25.13
-23.41
-19.43
-13.52
-6.43
0.98
7.90
13.78
18.35
21.54
23.39
23.95
23.34
21.79
19.58
17.03
14.41
11.86
9.41
7.08
4.93
3.09
1.71
0.84
0.39
0.12
-0.22
-0.85
-1.82
-3.08
-4.52
-6.06
-7.67
-9.38
-11.22
-13.25
-15.47
-17.86
-20.28
-22.42
-23.84
-24.03
-22.56
-19.31
-14.43
-8.39
-1.79
4.78
10.89
16.22
20.55
23.69
25.50
25.90
24.99
23.01
20.31
17.27
14.24
11.44
9.01
6.99
5.34
4.01
2.91
1.94
1.03
0.12
-0.83
-1.86
-2.98
-4.19
-5.43
-6.65
-7.82
-8.98
-10.27
-11.88
-13.99
-16.71
-19.86
-23.05
-25.62
-26.84
-26.08
-23.08
-18.02
-11.47
-4.24
2.90
9.41
14.99
19.52
22.91
25.10
26.03
25.75
24.42
22.33
19.78
17.02
14.20
11.43
8.78
6.37
4.34
2.79
1.75
1.13
0.73
0.34
-0.25
-1.14
-2.29
-3.62
-4.99
-6.35
-7.70
-9.14
-10.80
-12.82
-15.30
-18.20
-21.31
-24.15
-26.11
-26.53
-25.00
-21.44
-16.21
-9.91
-3.25
3.22
9.12
14.25
18.46
21.61
23.54
24.15
23.50
21.76
19.25
16.34
13.32
10.45
7.88
5.67
3.84
2.35
1.11
0.05
-0.91
-1.83
-2.73
-3.62
-4.50
-5.37
-6.25
-7.17
-8.15
-9.29
-10.74
-12.66
-15.15
-18.09
-21.06
-23.37
-24.24
-23.02
-19.50
-13.96
-7.10
0.18
7.04
12.90
17.46
20.67
22.59
23.38
23.18
22.14
20.42
18.19
15.65
13.01
10.48
8.22
6.26
4.53
2.92
1.31
-0.30
-1.84
-3.21
-4.34
-5.28
-6.16
-7.08
-8.15
-9.38
-10.80
-12.50
-14.61
-17.18
-20.11
-22.93
-24.96
-25.42
-23.73
-19.77
-13.93
-6.95
0.27
6.99
12.80
17.53
21.19
23.78
25.25
25.56
24.74
23.00
20.64
17.99
15.27
12.63
10.12
7.74
5.54
3.62
2.03
0.82
-0.06
-0.72
-1.30
-1.95
-2.76
-3.77
-4.96
-6.28
-7.69
-9.22
-10.95
-13.02
-15.54
-18.46
-21.50
-24.16
-25.77
-25.70
-23.57
-19.37
-13.47
-6.53
0.70
7.54
13.51
18.30
21.80
23.97
24.88
24.66
23.51
21.66
19.34
16.73
13.96
11.16
8.45
5.99
3.92
2.32
1.19
0.44
-0.10
-0.57
-1.10
-1.78
-2.61
-3.58
-4.66
-5.81
-7.04
-8.43
-10.06
-12.06
-14.46
-17.22
-20.09
-22.62
-24.21
-24.28
-22.42
-18.55
-13.02
-6.44
0.43
6.90
12.47
16.89
20.04
21.94
22.67
22.34
21.15
19.30
17.01
14.46
11.80
9.17
6.70
4.54
2.79
1.50
0.59
-0.06
-0.64
-1.28
-2.06
-2.97
-4.01
-5.17
-6.41
-7.74
-9.14
-10.66
-12.38
-14.44
-16.94
-19.79
-22.61
-24.75
-25.49
-24.28
-20.96
-15.83
-9.50
-2.67
4.07
10.27
15.66
20.04
23.21
25.03
25.44
24.53
22.57
19.94
17.07
14.35
12.00
10.07
8.46
7.00
5.56
4.08
2.63
1.34
0.25
-0.70
-1.65
-2.73
-4.01
-5.40
-6.74
-7.88
-8.76
-9.47
-10.24
-11.38
-13.12
-15.62
-18.77
-22.28
-25.61
-28.10
-29.11
-28.18
-25.15
-20.24
-13.94
-6.87
0.34
7.20
13.33
18.47
22.42
25.03
26.23
26.06
24.75
22.64
20.10
17.47
14.94
12.55
10.29
8.13
6.11
4.35
2.98
2.02
1.41
0.95
0.41
-0.33
-1.33
-2.54
-3.82
-5.09
-6.30
-7.48
-8.75
-10.31
-12.35
-15.01
-18.21
-21.61
-24.59
-26.46
-26.59
-24.66
-20.73
-15.20
-8.64
-1.69
5.10
11.30
16.57
20.67
23.45
24.89
25.09
24.26
22.65
20.48
17.94
15.17
12.33
9.58
7.10
5.00
3.33
2.05
1.06
0.27
-0.42
-1.06
-1.75
-2.54
-3.50
-4.65
-5.98
-7.40
-8.83
-10.31
-11.95
-13.92
-16.35
-19.13
-21.88
-24.00
-24.83
-23.88
-20.96
-16.30
-10.40
-3.93
2.48
8.35
13.37
17.36
20.25
21.97
22.51
21.95
20.46
18.34
15.88
13.37
10.96
8.72
6.68
4.86
3.28
1.95
0.80
-0.29
-1.47
-2.80
-4.23
-5.63
-6.82
-7.72
-8.34
-8.84
-9.45
-10.48
-12.16
-14.58
-17.62
-20.83
-23.51
-24.84
-24.15
-21.10
-15.83
-8.97
-1.39
5.97
12.38
17.38
20.86
22.91
23.75
23.58
22.58
20.89
18.64
16.02
13.26
10.56
8.09
5.93
4.05
2.42
0.98
-0.31
-1.43
-2.41
-3.28
-4.07
-4.85
-5.63
-6.43
-7.32
-8.35
-9.65
-11.33
-13.49
-16.14
-19.20
-22.36
-25.14
-26.92
-27.10
-25.26
-21.34
-15.65
-8.75
-1.39
5.76
12.20
17.60
21.77
24.63
26.16
26.42
25.53
23.72
21.25
18.42
15.48
12.62
9.96
7.55
5.44
3.66
2.29
1.35
0.77
0.35
-0.13
-0.88
-1.97
-3.37
-4.91
-6.42
-7.79
-9.04
-10.31
-11.81
-13.80
-16.40
-19.53
-22.81
-25.59
-27.12
-26.73
-24.10
-19.34
-12.99
-5.81
1.43
8.11
13.86
18.49
21.95
24.22
25.34
25.41
24.53
22.87
20.57
17.77
14.64
11.39
8.27
5.55
3.42
1.94
1.07
0.62
0.39
0.16
-0.22
-0.85
-1.77
-2.93
-4.27
-5.72
-7.24
-8.88
-10.73
-12.86
-15.27
-17.78
-20.06
-21.67
-22.20
-21.32
-18.93
-15.16
-10.32
-4.81
0.95
6.57
11.74
16.16
19.59
21.82
22.73
22.36
20.85
18.50
15.62
12.52
9.51
6.83
4.66
3.05
1.94
1.15
0.50
-0.20
-1.03
-1.96
-2.92
-3.86
-4.75
-5.68
-6.73
-8.03
-9.64
-11.60
-13.90
-16.47
-19.16
-21.63
-23.39
-23.88
-22.61
-19.36
-14.28
-7.89
-0.94
5.81
11.78
16.60
20.14
22.38
23.36
23.15
21.92
19.88
17.33
14.57
11.84
9.32
7.11
5.25
3.71
2.44
1.38
0.43
-0.50
-1.47
-2.51
-3.61
-4.74
-5.85
-6.95
-8.04
-9.24
-10.69
-12.55
-14.90
-17.64
-20.50
-22.96
-24.41
-24.29
-22.23
-18.17
-12.42
-5.59
1.58
8.34
14.09
18.53
21.57
23.33
24.00
23.77
22.81
21.23
19.16
16.74
14.14
11.54
9.04
6.72
4.68
2.99
1.74
0.96
0.55
0.29
-0.07
-0.75
-1.84
-3.28
-4.88
-6.46
-7.93
-9.30
-10.75
-12.48
-14.68
-17.38
-20.41
-23.33
-25.53
-26.37
-25.40
-22.44
-17.70
-11.63
-4.80
2.19
8.81
14.65
19.37
22.73
24.60
25.00
24.11
22.28
19.95
17.52
15.27
13.22
11.26
9.19
6.99
4.83
3.01
1.79
1.21
1.05
0.94
0.53
-0.31
-1.50
-2.83
-4.16
-5.45
-6.77
-8.19
-9.81
-11.66
-13.85
-16.42
-19.30
-22.18
-24.50
-25.51
-24.59
-21.42
-16.16
-9.44
-2.11
4.97
11.16
16.14
19.80
22.19
23.41
23.54
22.66
20.90
18.45
15.60
12.67
9.94
7.59
5.68
4.17
3.01
2.10
1.36
0.72
0.07
-0.69
-1.63
-2.75
-4.01
-5.27
-6.43
-7.47
-8.49
-9.68
-11.25
-13.34
-15.97
-18.96
-21.95
-24.41
-25.72
-25.35
-22.99
-18.64
-12.70
-5.78
1.35
8.06
13.88
18.58
22.05
24.26
25.23
25.01
23.73
21.64
19.03
16.18
13.32
10.61
8.17
6.05
4.33
3.01
2.06
1.37
0.80
0.26
-0.33
-1.00
-1.79
-2.75
-3.96
-5.43
-7.09
-8.86
-10.66
-12.52
-14.58
-16.96
-19.68
-22.51
-24.96
-26.42
-26.29
-24.24
-20.27
-14.70
-8.07
-0.97
6.06
12.56
18.18
22.62
25.65
27.11
27.03
25.61
23.21
20.26
17.16
14.17
11.44
9.01
6.85
4.95
3.30
1.93
0.86
0.07
-0.49
-0.93
-1.42
-2.10
-3.08
-4.34
-5.77
-7.22
-8.61
-10.02
-11.64
-13.69
-16.24
-19.07
-21.63
-23.22
-23.16
-21.10
-17.06
-11.49
-5.07
1.49
7.62
12.92
17.14
20.15
21.89
22.38
21.71
20.13
17.93
15.42
12.82
10.28
7.86
5.57
3.44
1.56
0.03
-1.08
-1.80
-2.26
-2.67
-3.24
-4.07
-5.16
-6.40
-7.69
-8.99
-10.38
-12.04
-14.10
-16.57
-19.25
-21.70
-23.38
-23.76
-22.45
-19.38
-14.79
-9.18
-3.14
2.82
8.32
13.18
17.27
20.48
22.65
23.63
23.31
21.76
19.20
16.01
12.60
9.37
6.56
4.25
2.38
0.82
-0.55
-1.75
-2.76
-3.56
-4.19
-4.75
-5.39
-6.23
-7.26
-8.40
-9.58
-10.85
-12.42
-14.48
-17.09
-19.94
-22.44
-23.80
-23.36
-20.78
-16.18
-10.01
-3.00
4.13
10.71
16.28
20.53
23.35
24.80
24.99
24.10
22.31
19.86
17.05
14.21
11.61
9.37
7.43
5.65
3.91
2.21
0.69
-0.48
-1.26
-1.77
-2.25
-2.92
-3.86
-5.03
-6.31
-7.61
-8.94
-10.41
-12.18
-14.39
-17.08
-20.11
-23.08
-25.39
-26.34
-25.36
-22.18
-16.95
-10.22
-2.76
4.67
11.44
17.13
21.52
24.52
26.14
26.50
25.81
24.32
22.31
19.97
17.44
14.81
12.15
9.55
7.14
5.02
3.32
2.12
1.44
1.19
1.15
1.05
0.63
-0.30
-1.77
-3.64
-5.70
-7.69
-9.43
-10.90
-12.24
-13.69
-15.56
-18.03
-21.07
-24.36
-27.27
-29.06
-29.06
-26.88
-22.55
-16.49
-9.40
-1.99
5.09
11.41
16.72
20.84
23.68
25.20
25.45
24.61
22.93
20.69
18.14
15.44
12.67
9.90
7.25
4.83
2.80
1.25
0.18
-0.50
-0.98
-1.45
-2.08
-2.92
-3.95
-5.06
-6.18
-7.29
-8.48
-9.92
-11.79
-14.15
-16.88
-19.68
-22.06
-23.46
-23.40
-21.58
-18.03
-13.06
-7.19
-1.03
4.91
10.29
14.91
18.68
21.48
23.17
23.60
22.72
20.65
17.72
14.35
10.96
7.87
5.25
3.17
1.63
0.53
-0.28
-1.00
-1.79
-2.77
-3.91
-5.11
-6.27
-7.38
-8.51
-9.80
-11.35
-13.23
-15.42
-17.84
-20.28
-22.37
-23.57
-23.32
-21.15
-16.97
-11.09
-4.19
2.89
9.39
14.81
18.96
21.87
23.62
24.31
23.97
22.68
20.57
17.86
14.84
11.78
8.87
6.18
3.73
1.52
-0.41
-2.01
-3.25
-4.14
-4.79
-5.33
-5.88
-6.55
-7.42
-8.59
-10.19
-12.36
-15.13
-18.32
-21.54
-24.15
-25.50
-25.03
-22.53
-18.11
-12.26
-5.60
1.23
7.70
13.46
18.27
21.98
24.47
25.65
25.51
24.16
21.88
19.05
16.07
13.25
10.74
8.51
6.49
4.57
2.72
1.02
-0.45
-1.67
-2.67
-3.58
-4.49
-5.44
-6.43
-7.46
-8.59
-10.04
-12.05
-14.76
-18.04
-21.40
-24.08
-25.28
-24.41
-21.31
-16.26
-9.85
-2.82
4.17
10.60
16.13
20.53
23.69
25.55
26.14
25.58
24.04
21.78
19.03
16.07
13.10
10.27
7.69
5.43
3.52
1.97
0.76
-0.17
-0.95
-1.73
-2.65
-3.76
-5.01
-6.34
-7.67
-9.03
-10.52
-12.34
-14.63
-17.36
-20.27
-22.79
-24.27
-24.12
-22.03
-18.10
-12.73
-6.54
-0.08
6.17
11.89
16.78
20.54
22.89
23.70
23.04
21.20
18.65
15.81
13.04
10.48
8.20
6.20
4.42
2.81
1.30
-0.19
-1.70
-3.17
-4.49
-5.55
-6.30
-6.83
-7.32
-8.01
-9.10
-10.69
-12.82
-15.40
-18.23
-20.92
-22.95
-23.75
-22.81
-19.89
-15.09
-8.88
-1.96
4.96
11.25
16.52
20.58
23.37
24.86
25.05
24.01
21.92
19.08
15.90
12.75
9.91
7.48
5.40
3.55
1.82
0.14
-1.47
-2.95
-4.25
-5.35
-6.24
-6.97
-7.67
-8.48
-9.64
-11.33
-13.64
-16.48
-19.50
-22.14
-23.71
-23.60
-21.39
-17.03
-10.91
-3.71
3.71
10.55
16.23
20.49
23.31
24.82
25.20
24.64
23.30
21.34
18.96
16.38
13.78
11.30
9.00
6.90
5.01
3.28
1.67
0.10
-1.44
-2.93
-4.28
-5.41
-6.30
-7.05
-7.82
-8.81
-10.15
-11.97
-14.34
-17.25
-20.51
-23.73
-26.26
-27.33
-26.32
-22.97
-17.50
-10.55
-2.95
4.49
11.20
16.86
21.34
24.57
26.52
27.18
26.60
24.97
22.59
19.79
16.86
13.95
11.11
8.37
5.81
3.62
2.00
1.05
0.67
0.53
0.24
-0.54
-1.88
-3.63
-5.49
-7.20
-8.64
-9.89
-11.18
-12.80
-14.93
-17.58
-20.54
-23.34
-25.37
-26.01
-24.80
-21.58
-16.53
-10.14
-3.09
3.91
10.27
15.56
19.56
22.23
23.63
23.93
23.30
21.97
20.10
17.85
15.37
12.79
10.24
7.83
5.66
3.80
2.25
1.04
0.11
-0.62
-1.25
-1.94
-2.80
-3.89
-5.17
-6.56
-7.96
-9.38
-10.93
-12.81
-15.16
-17.95
-20.85
-23.33
-24.70
-24.40
-22.13
-17.98
-12.39
-5.99
0.53
6.58
11.79
15.95
18.96
20.82
21.57
21.27
20.03
17.99
15.36
12.38
9.34
6.54
4.23
2.52
1.36
0.55
-0.20
-1.06
-2.11
-3.32
-4.55
-5.66
-6.60
-7.43
-8.27
-9.31
-10.69
-12.53
-14.85
-17.51
-20.22
-22.47
-23.66
-23.21
-20.78
-16.43
-10.61
-4.01
2.62
8.71
13.90
18.07
21.14
23.03
23.66
23.07
21.43
19.03
16.23
13.29
10.37
7.56
4.91
2.50
0.42
-1.25
-2.51
-3.41
-4.03
-4.49
-4.93
-5.47
-6.23
-7.29
-8.70
-10.46
-12.55
-14.91
-17.43
-19.89
-21.94
-23.14
-23.04
-21.32
-17.92
-13.00
-6.97
-0.37
6.23
12.30
17.43
21.35
23.92
25.12
25.01
23.77
21.63
18.91
15.92
12.94
10.14
7.62
5.38
3.45
1.84
0.56
-0.44
-1.29
-2.14
-3.10
-4.22
-5.45
-6.71
-7.96
-9.23
-10.59
-12.19
-14.18
-16.62
-19.38
-22.10
-24.23
-25.12
-24.25
-21.44
-16.82
-10.86
-4.14
2.75
9.33
15.17
19.94
23.36
25.32
25.86
25.20
23.69
21.63
19.26
16.68
13.99
11.26
8.63
6.24
4.21
2.56
1.21
0.03
-1.09
-2.24
-3.36
-4.39
-5.26
-5.99
-6.69
-7.54
-8.73
-10.45
-12.78
-15.65
-18.81
-21.81
-24.00
-24.75
-23.60
-20.45
-15.61
-9.62
-3.14
3.28
9.26
14.55
19.00
22.40
24.63
25.59
25.35
24.05
21.88
19.07
15.91
12.67
9.64
7.05
5.01
3.52
2.45
1.63
0.94
0.22
-0.66
-1.78
-3.19
-4.78
-6.36
-7.73
-8.78
-9.54
-10.27
-11.30
-12.94
-15.38
-18.57
-22.11
-25.30
-27.28
-27.29
-24.90
-20.22
-13.83
-6.59
0.65
7.27
12.87
17.30
20.48
22.39
23.09
22.75
21.63
20.03
18.15
16.10
13.84
11.37
8.72
6.10
3.75
1.89
0.63
-0.15
-0.67
-1.21
-1.95
-2.93
-4.07
-5.22
-6.30
-7.32
-8.39
-9.65
-11.23
-13.17
-15.44
-17.87
-20.18
-21.93
-22.66
-21.95
-19.58
-15.58
-10.29
-4.24
1.96
7.79
12.83
16.86
19.74
21.38
21.77
20.95
19.07
16.39
13.26
10.07
7.11
4.58
2.52
0.87
-0.44
-1.49
-2.32
-2.99
-3.56
-4.13
-4.79
-5.62
-6.65
-7.90
-9.34
-11.02
-12.97
-15.26
-17.84
-20.45
-22.65
-23.79
-23.30
-20.82
-16.42
-10.55
-3.91
2.74
8.87
14.16
18.47
21.74
23.82
24.56
23.88
21.91
19.01
15.70
12.49
9.69
7.36
5.35
3.48
1.59
-0.33
-2.23
-3.96
-5.42
-6.58
-7.44
-8.09
-8.64
-9.28
-10.21
-11.63
-13.65
-16.25
-19.16
-21.89
-23.77
-24.14
-22.49
-18.71
-13.11
-6.38
0.66
7.30
13.05
17.69
21.17
23.47
24.59
24.51
23.33
21.25
18.62
15.80
13.07
10.57
8.32
6.25
4.30
2.49
0.89
-0.43
-1.42
-2.14
-2.69
-3.17
-3.72
-4.43
-5.40
-6.79
-8.76
-11.39
-14.60
-18.07
-21.21
-23.37
-23.92
-22.53
-19.15
-14.08
-7.82
-1.00
5.77
11.97
17.19
21.19
23.85
25.21
25.40
24.60
22.99
20.74
18.03
15.07
12.05
9.19
6.62
4.42
2.59
1.03
-0.37
-1.72
-3.03
-4.31
-5.49
-6.58
-7.60
-8.61
-9.70
-10.97
-12.50
-14.37
-16.59
-19.06
-21.50
-23.40
-24.16
-23.23
-20.32
-15.49
-9.15
-1.95
5.37
12.19
17.97
22.40
25.31
26.69
26.71
25.66
23.87
21.68
19.36
17.07
14.93
12.93
11.06
9.23
7.41
5.60
3.91
2.54
1.63
1.20
1.09
0.98
0.54
-0.47
-2.05
-4.00
-6.03
-7.91
-9.57
-11.13
-12.78
-14.70
-16.95
-19.54
-22.37
-25.35
-28.24
-30.67
-32.07
-31.82
-29.43
-24.72
-18.00
-9.95
-1.43
6.72
13.87
19.65
23.89
26.58
27.79
27.67
26.49
24.54
22.13
19.50
16.81
14.16
11.61
9.23
7.13
5.39
4.04
3.05
2.27
1.52
0.65
-0.39
-1.57
-2.74
-3.81
-4.73
-5.61
-6.61
-7.93
-9.71
-12.02
-14.81
-17.85
-20.74
-22.96
-23.90
-23.06
-20.24
-15.63
-9.72
-3.19
3.27
9.18
14.17
18.06
20.72
22.10
22.27
21.40
19.73
17.56
15.13
12.60
10.09
7.67
5.41
3.38
1.60
0.06
-1.28
-2.42
-3.35
-4.06
-4.58
-5.03
-5.59
-6.45
-7.72
-9.44
-11.55
-13.99
-16.71
-19.56
-22.31
-24.51
-25.60
-25.06
-22.62
-18.35
-12.71
-6.34
0.16
6.31
11.84
16.58
20.35
22.98
24.32
24.31
23.11
20.97
18.23
15.21
12.15
9.25
6.64
4.40
2.55
1.00
-0.36
-1.61
-2.80
-3.92
-4.93
-5.85
-6.70
-7.57
-8.55
-9.73
-11.25
-13.23
-15.71
-18.54
-21.26
-23.19
-23.64
-22.15
-18.68
-13.57
-7.42
-0.86
5.58
11.51
16.65
20.77
23.68
25.28
25.56
24.63
22.73
20.11
17.06
13.88
10.80
8.00
5.55
3.44
1.60
-0.04
-1.57
-2.99
-4.28
-5.40
-6.31
-7.05
-7.72
-8.47
-9.46
-10.83
-12.71
-15.14
-18.05
-21.16
-23.99
-25.85
-26.08
-24.22
-20.17
-14.28
-7.19
0.29
7.46
13.78
18.90
22.63
24.92
25.80
25.42
24.02
21.91
19.38
16.66
13.90
11.15
8.46
5.89
3.51
1.38
-0.45
-1.99
-3.28
-4.34
-5.17
-5.80
-6.27
-6.74
-7.40
-8.48
-10.09
-12.27
-14.94
-17.91
-20.88
-23.44
-25.05
-25.15
-23.37
-19.60
-14.13
-7.52
-0.48
6.35
12.51
17.72
21.84
24.76
26.41
26.80
26.02
24.30
21.96
19.28
16.51
13.80
11.24
8.90
6.84
5.12
3.73
2.66
1.80
1.03
0.22
-0.73
-1.90
-3.30
-4.88
-6.56
-8.21
-9.78
-11.25
-12.68
-14.24
-16.07
-18.34
-21.06
-24.05
-26.85
-28.81
-29.24
-27.59
-23.71
-17.86
-10.65
-2.84
4.87
11.94
17.99
22.72
25.89
27.39
27.30
25.91
23.69
21.14
18.59
16.18
13.87
11.58
9.26
6.97
4.82
2.96
1.46
0.35
-0.43
-0.99
-1.46
-1.98
-2.66
-3.60
-4.82
-6.30
-7.97
-9.74
-11.57
-13.50
-15.62
-18.07
-20.82
-23.65
-25.98
-27.05
-26.17
-22.92
-17.43
-10.32
-2.49
5.19
12.06
17.79
22.28
25.47
27.32
27.82
27.02
25.15
22.56
19.62
16.65
13.85
11.30
9.00
6.92
5.06
3.44
2.11
1.12
0.47
0.06
-0.32
-0.93
-1.93
-3.35
-5.02
-6.73
-8.28
-9.70
-11.12
-12.78
-14.87
-17.45
-20.47
-23.67
-26.66
-28.89
-29.75
-28.73
-25.55
-20.33
-13.52
-5.84
1.96
9.25
15.58
20.68
24.42
26.77
27.77
27.56
26.31
24.28
21.71
18.86
15.92
13.03
10.29
7.76
5.51
3.66
2.33
1.53
1.18
1.04
0.80
0.20
-0.86
-2.33
-4.07
-5.88
-7.63
-9.26
-10.82
-12.41
-14.21
-16.39
-19.04
-22.05
-24.98
-27.17
-27.87
-26.53
-22.98
-17.52
-10.76
-3.46
3.75
10.44
16.32
21.21
24.90
27.21
28.03
27.45
25.74
23.31
20.57
17.85
15.31
12.96
10.72
8.53
6.41
4.48
2.91
1.85
1.36
1.29
1.33
1.10
0.31
-1.12
-3.03
-5.12
-7.10
-8.83
-10.35
-11.81
-13.36
-15.13
-17.20
-19.65
-22.48
-25.53
-28.41
-30.48
-31.00
-29.37
-25.39
-19.29
-11.68
-3.37
4.83
12.26
18.42
23.03
25.99
27.37
27.39
26.35
24.56
22.32
19.87
17.36
14.87
12.44
10.06
7.77
5.65
3.81
2.33
1.24
0.44
-0.22
-0.88
-1.63
-2.52
-3.51
-4.59
-5.77
-7.03
-8.40
-9.91
-11.70
-13.92
-16.66
-19.78
-22.84
-25.10
-25.82
-24.46
-20.94
-15.66
-9.31
-2.66
3.74
9.51
14.46
18.47
21.39
23.10
23.49
22.66
20.81
18.26
15.33
12.30
9.35
6.58
4.12
2.04
0.42
-0.78
-1.68
-2.46
-3.27
-4.18
-5.18
-6.20
-7.18
-8.10
-9.05
-10.12
-11.46
-13.21
-15.42
-17.99
-20.56
-22.54
-23.27
-22.24
-19.28
-14.63
-8.82
-2.47
3.87
9.80
15.04
19.33
22.41
24.12
24.40
23.42
21.45
18.87
16.03
13.21
10.60
8.30
6.26
4.41
2.63
0.86
-0.91
-2.63
-4.26
-5.73
-7.07
-8.25
-9.27
-10.16
-11.00
-11.99
-13.36
-15.32
-17.88
-20.74
-23.30
-24.82
-24.61
-22.28
-17.86
-11.76
-4.69
2.60
9.40
15.24
19.84
23.09
24.99
25.61
25.07
23.57
21.40
18.83
16.09
13.34
10.63
7.98
5.43
3.05
0.92
-0.86
-2.29
-3.38
-4.19
-4.78
-5.28
-5.81
-6.57
-7.71
-9.37
-11.58
-14.28
-17.33
-20.51
-23.44
-25.63
-26.52
-25.65
-22.84
-18.20
-12.24
-5.58
1.13
7.42
12.98
17.64
21.30
23.89
25.36
25.73
25.07
23.50
21.17
18.30
15.08
11.76
8.57
5.78
3.59
2.13
1.34
0.99
0.71
0.16
-0.87
-2.36
-4.12
-5.92
-7.63
-9.26
-10.95
-12.83
-15.00
-17.45
-20.05
-22.53
-24.44
-25.21
-24.27
-21.29
-16.34
-9.95
-2.84
4.25
10.78
16.45
21.03
24.33
26.18
26.48
25.39
23.28
20.64
17.90
15.29
12.84
10.49
8.17
5.94
3.90
2.12
0.63
-0.62
-1.74
-2.79
-3.79
-4.72
-5.59
-6.42
-7.33
-8.43
-9.84
-11.62
-13.79
-16.35
-19.21
-22.08
-24.47
-25.67
-24.99
-22.03
-16.90
-10.22
-2.91
4.12
10.25
15.27
19.18
22.07
23.94
24.70
24.27
22.68
20.15
17.04
13.79
10.74
8.10
5.92
4.12
2.57
1.16
-0.13
-1.25
-2.17
-2.91
-3.61
-4.44
-5.50
-6.78
-8.19
-9.70
-11.36
-13.36
-15.85
-18.74
-21.63
-23.81
-24.53
-23.24
-19.85
-14.69
-8.42
-1.76
4.70
10.55
15.58
19.64
22.61
24.36
24.81
23.99
22.10
19.48
16.48
13.40
10.43
7.64
5.07
2.75
0.75
-0.84
-2.01
-2.83
-3.43
-3.97
-4.56
-5.27
-6.13
-7.17
-8.46
-10.04
-12.01
-14.41
-17.17
-20.05
-22.59
-24.16
-24.13
-22.07
-17.92
-12.02
-5.02
2.32
9.32
15.48
20.49
24.15
26.36
27.11
26.49
24.74
22.22
19.34
16.46
13.82
11.46
9.32
7.29
5.32
3.48
1.90
0.67
-0.20
-0.85
-1.47
-2.22
-3.18
-4.37
-5.71
-7.15
-8.64
-10.14
-11.70
-13.41
-15.44
-17.95
-20.95
-24.11
-26.84
-28.30
-27.80
-24.96
-19.91
-13.21
-5.62
2.11
9.37
15.75
20.95
24.78
27.15
28.05
27.63
26.14
23.93
21.36
18.73
16.22
13.83
11.52
9.20
6.90
4.78
3.08
1.98
1.56
1.63
1.88
1.91
1.43
0.29
-1.40
-3.45
-5.56
-7.52
-9.22
-10.71
-12.14
-13.74
-15.71
-18.20
-21.17
-24.38
-27.34
-29.38
-29.79
-27.99
-23.80
-17.51
-9.79
-1.57
6.29
13.15
18.69
22.83
25.62
27.09
27.28
26.25
24.20
21.44
18.41
15.55
13.13
11.21
9.62
8.14
6.60
5.00
3.52
2.38
1.72
1.49
1.42
1.17
0.48
-0.73
-2.33
-4.08
-5.75
-7.22
-8.54
-9.84
-11.26
-12.88
-14.79
-17.02
-19.61
-22.47
-25.34
-27.73
-28.98
-28.45
-25.75
-20.89
-14.35
-6.90
0.62
7.50
13.32
17.89
21.19
23.22
24.03
23.70
22.40
20.43
18.14
15.82
13.61
11.51
9.43
7.31
5.20
3.23
1.60
0.40
-0.37
-0.85
-1.24
-1.73
-2.43
-3.40
-4.60
-5.94
-7.36
-8.81
-10.32
-12.00
-13.93
-16.20
-18.72
-21.23
-23.28
-24.31
-23.81
-21.52
-17.46
-11.97
-5.59
1.09
7.56
13.40
18.31
22.03
24.37
25.24
24.71
23.00
20.50
17.61
14.69
11.94
9.46
7.29
5.43
3.87
2.59
1.51
0.52
-0.48
-1.57
-2.77
-4.04
-5.32
-6.55
-7.70
-8.78
-9.85
-11.04
-12.50
-14.36
-16.68
-19.35
-22.09
-24.42
-25.80
-25.68
-23.69
-19.77
-14.16
-7.42
-0.26
6.61
12.67
17.57
21.22
23.61
24.79
24.85
23.88
22.05
19.59
16.79
13.92
11.21
8.79
6.71
4.94
3.46
2.20
1.15
0.29
-0.42
-1.05
-1.72
-2.55
-3.60
-4.85
-6.20
-7.53
-8.79
-10.08
-11.58
-13.51
-16.06
-19.19
-22.60
-25.71
-27.76
-28.05
-26.19
-22.15
-16.36
-9.51
-2.30
4.66
10.95
16.27
20.41
23.22
24.64
24.78
23.89
22.26
20.16
17.76
15.17
12.54
10.01
7.74
5.85
4.35
3.17
2.20
1.33
0.46
-0.48
-1.57
-2.80
-4.09
-5.33
-6.44
-7.42
-8.42
-9.65
-11.30
-13.50
-16.24
-19.35
-22.51
-25.20
-26.74
-26.47
-23.95
-19.17
-12.63
-5.18
2.25
8.90
14.37
18.56
21.48
23.26
23.97
23.72
22.66
20.96
18.82
16.36
13.68
10.86
8.06
5.44
3.19
1.43
0.21
-0.54
-0.98
-1.27
-1.61
-2.15
-2.97
-4.10
-5.48
-7.04
-8.75
-10.60
-12.66
-15.00
-17.62
-20.36
-22.82
-24.47
-24.69
-23.05
-19.43
-14.06
-7.54
-0.54
6.29
12.44
17.58
21.47
23.94
24.91
24.46
22.85
20.51
17.89
15.28
12.84
10.53
8.32
6.19
4.20
2.42
0.87
-0.47
-1.66
-2.71
-3.63
-4.40
-5.10
-5.84
-6.79
-8.08
-9.77
-11.85
-14.28
-16.98
-19.79
-22.36
-24.19
-24.68
-23.36
-20.05
-14.99
-8.76
-2.07
4.45
10.39
15.50
19.68
22.82
24.77
25.46
24.90
23.29
20.93
18.18
15.33
12.57
10.03
7.74
5.77
4.11
2.73
1.54
0.42
-0.73
-1.94
-3.18
-4.38
-5.50
-6.51
-7.46
-8.47
-9.67
-11.24
-13.34
-16.02
-19.18
-22.46
-25.27
-26.95
-26.88
-24.73
-20.48
-14.47
-7.29
0.37
7.82
14.52
20.04
24.11
26.62
27.54
27.04
25.41
23.06
20.44
17.88
15.56
13.43
11.32
9.12
6.86
4.73
3.00
1.83
1.16
0.75
0.28
-0.49
-1.63
-3.02
-4.47
-5.87
-7.17
-8.47
-9.91
-11.66
-13.85
-16.53
-19.63
-22.89
-25.85
-27.91
-28.47
-27.10
-23.64
-18.25
-11.40
-3.76
3.98
11.17
17.33
22.10
25.35
27.04
27.30
26.35
24.49
22.08
19.42
16.72
14.05
11.41
8.85
6.48
4.55
3.28
2.69
2.55
2.46
2.01
0.99
-0.47
-2.07
-3.48
-4.58
-5.44
-6.32
-7.48
-9.09
-11.24
-13.90
-16.98
-20.21
-23.18
-25.28
-25.93
-24.67
-21.41
-16.39
-10.13
-3.28
3.52
9.74
15.00
19.04
21.76
23.19
23.43
22.68
21.17
19.13
16.77
14.19
11.48
8.71
6.00
3.50
1.43
-0.08
-1.05
-1.58
-1.91
-2.26
-2.77
-3.49
-4.44
-5.60
-6.98
-8.56
-10.30
-12.19
-14.26
-16.55
-19.03
-21.48
-23.44
-24.33
-23.63
-21.11
-16.89
-11.42
-5.32
0.87
6.73
11.99
16.50
20.07
22.51
23.62
23.30
21.64
18.94
15.71
12.49
9.67
7.41
5.59
4.04
2.58
1.19
-0.08
-1.15
-2.04
-2.84
-3.67
-4.58
-5.57
-6.59
-7.65
-8.83
-10.30
-12.18
-14.54
-17.24
-19.96
-22.15
-23.18
-22.48
-19.78
-15.18
-9.19
-2.57
3.94
9.79
14.68
18.49
21.15
22.64
22.95
22.17
20.51
18.31
15.90
13.52
11.29
9.21
7.22
5.24
3.27
1.38
-0.34
-1.80
-2.92
-3.71
-4.26
-4.73
-5.27
-6.03
-7.12
-8.55
-10.37
-12.58
-15.18
-18.09
-21.07
-23.63
-25.14
-24.96
-22.70
-18.36
-12.41
-5.62
1.24
7.54
12.97
17.42
20.86
23.28
24.61
24.84
24.06
22.45
20.25
17.67
14.88
12.03
9.30
6.90
5.01
3.70
2.87
2.30
1.69
0.82
-0.39
-1.89
-3.52
-5.12
-6.61
-7.96
-9.21
-10.42
-11.66
-13.06
-14.81
-17.07
-19.86
-22.87
-25.45
-26.77
-26.04
-22.87
-17.46
-10.50
-2.95
4.29
10.64
15.86
19.93
22.89
24.74
25.45
25.04
23.66
21.58
19.16
16.68
14.31
12.07
9.91
7.78
5.73
3.90
2.41
1.34
0.65
0.13
-0.41
-1.18
-2.25
-3.55
-4.96
-6.37
-7.71
-9.06
-10.56
-12.38
-14.69
-17.50
-20.59
-23.55
-25.75
-26.58
-25.55
-22.50
-17.61
-11.39
-4.49
2.40
8.71
14.05
18.19
21.05
22.67
23.15
22.67
21.39
19.48
17.11
14.42
11.60
8.86
6.38
4.30
2.67
1.45
0.55
-0.16
-0.82
-1.53
-2.39
-3.41
-4.59
-5.86
-7.17
-8.46
-9.73
-11.08
-12.66
-14.59
-16.90
-19.37
-21.54
-22.77
-22.47
-20.25
-16.16
-10.63
-4.33
2.04
7.94
13.09
17.31
20.46
22.43
23.10
22.48
20.74
18.21
15.28
12.29
9.52
7.07
5.01
3.28
1.81
0.46
-0.83
-2.11
-3.30
-4.35
-5.20
-5.88
-6.49
-7.18
-8.10
-9.39
-11.17
-13.47
-16.17
-18.96
-21.30
-22.59
-22.29
-20.15
-16.28
-11.06
-5.05
1.17
7.09
12.31
16.56
19.66
21.53
22.24
21.91
20.76
19.00
16.83
14.47
12.05
9.67
7.36
5.10
2.89
0.75
-1.21
-2.87
-4.13
-5.00
-5.54
-5.96
-6.49
-7.36
-8.76
-10.74
-13.27
-16.15
-19.10
-21.71
-23.48
-23.94
-22.71
-19.66
-15.02
-9.28
-3.09
2.97
8.51
13.34
17.40
20.62
22.89
24.06
24.08
23.00
20.97
18.25
15.09
11.78
8.62
5.86
3.65
1.99
0.74
-0.31
-1.31
-2.29
-3.22
-4.07
-4.89
-5.75
-6.80
-8.06
-9.55
-11.26
-13.21
-15.46
-17.95
-20.46
-22.56
-23.68
-23.29
-21.07
-17.03
-11.50
-5.05
1.69
8.12
13.82
18.50
22.03
24.31
25.26
24.89
23.35
20.91
18.00
15.03
12.29
9.88
7.75
5.86
4.17
2.73
1.54
0.56
-0.36
-1.37
-2.58
-3.95
-5.35
-6.67
-7.84
-8.93
-10.10
-11.52
-13.35
-15.66
-18.36
-21.22
-23.81
-25.56
-25.85
-24.24
-20.59
-15.09
-8.30
-0.94
6.25
12.63
17.80
21.52
23.77
24.63
24.28
23.00
21.09
18.86
16.51
14.15
11.79
9.41
7.05
4.83
2.94
1.53
0.60
0.05
-0.34
-0.78
-1.36
-2.16
-3.15
-4.36
-5.78
-7.42
-9.21
-11.09
-13.03
-15.08
-17.30
-19.65
-21.86
-23.47
-23.90
-22.70
-19.71
-15.11
-9.34
-2.98
3.45
9.49
14.80
19.09
22.11
23.66
23.72
22.42
20.08
17.13
14.01
11.09
8.56
6.47
4.73
3.20
1.80
0.49
-0.72
-1.82
-2.78
-3.63
-4.42
-5.18
-5.98
-6.85
-7.87
-9.13
-10.79
-12.94
-15.62
-18.61
-21.47
-23.53
-24.08
-22.60
-18.99
-13.58
-7.03
-0.10
6.52
12.35
17.10
20.63
22.89
23.89
23.75
22.64
20.78
18.38
15.63
12.73
9.91
7.34
5.19
3.48
2.14
1.04
0.04
-0.93
-1.88
-2.80
-3.68
-4.58
-5.57
-6.76
-8.20
-9.94
-12.00
-14.36
-16.97
-19.68
-22.13
-23.81
-24.12
-22.55
-18.89
-13.38
-6.60
0.60
7.46
13.42
18.21
21.78
24.16
25.34
25.35
24.25
22.23
19.59
16.67
13.76
11.03
8.55
6.30
4.29
2.54
1.09
-0.03
-0.85
-1.49
-2.11
-2.92
-4.02
-5.41
-6.97
-8.54
-10.04
-11.48
-13.06
-14.99
-17.40
-20.12
-22.71
-24.47
-24.73
-23.07
-19.42
-14.09
-7.61
-0.62
6.29
12.60
17.93
21.96
24.52
25.60
25.34
24.03
22.01
19.57
16.96
14.37
11.91
9.68
7.77
6.18
4.91
3.86
2.93
2.02
1.01
-0.13
-1.41
-2.78
-4.20
-5.62
-7.04
-8.51
-10.11
-11.96
-14.19
-16.83
-19.75
-22.62
-24.88
-25.93
-25.22
-22.51
-17.90
-11.82
-4.92
2.08
8.58
14.14
18.47
21.44
23.03
23.31
22.44
20.64
18.21
15.46
12.67
10.05
7.70
5.68
3.93
2.42
1.07
-0.17
-1.32
-2.38
-3.32
-4.13
-4.80
-5.42
-6.13
-7.09
-8.41
-10.20
-12.44
-15.02
-17.72
-20.21
-22.04
-22.71
-21.77
-19.00
-14.49
-8.67
-2.21
4.19
9.95
14.75
18.47
21.10
22.62
23.01
22.23
20.37
17.69
14.58
11.48
8.71
6.43
4.62
3.14
1.88
0.74
-0.32
-1.35
-2.38
-3.43
-4.49
-5.52
-6.47
-7.36
-8.27
-9.34
-10.75
-12.62
-14.94
-17.56
-20.15
-22.22
-23.22
-22.63
-20.12
-15.65
-9.60
-2.60
4.53
11.07
16.51
20.55
23.14
24.36
24.34
23.27
21.38
18.99
16.38
13.80
11.41
9.26
7.33
5.60
4.02
2.57
1.17
-0.22
-1.61
-2.96
-4.19
-5.25
-6.14
-6.92
-7.69
-8.61
-9.82
-11.49
-13.72
-16.51
-19.63
-22.59
-24.71
-25.32
-23.98
-20.62
-15.56
-9.38
-2.74
3.80
9.81
15.03
19.25
22.31
24.13
24.68
24.08
22.49
20.14
17.29
14.18
11.05
8.15
5.67
3.68
2.18
1.06
0.18
-0.58
-1.29
-1.95
-2.63
-3.39
-4.31
-5.49
-6.96
-8.68
-10.63
-12.83
-15.32
-18.09
-20.96
-23.49
-25.06
-25.00
-22.88
-18.67
-12.79
-5.95
1.05
7.54
13.13
17.65
21.07
23.35
24.42
24.25
22.91
20.66
17.87
14.92
12.11
9.60
7.39
5.47
3.80
2.42
1.32
0.43
-0.36
-1.17
-2.05
-2.97
-3.89
-4.80
-5.78
-6.98
-8.55
-10.58
-13.04
-15.81
-18.63
-21.13
-22.85
-23.30
-22.10
-19.10
-14.44
-8.61
-2.25
3.97
9.52
14.10
17.60
20.01
21.35
21.63
20.87
19.15
16.70
13.84
10.95
8.33
6.07
4.13
2.34
0.58
-1.10
-2.58
-3.69
-4.37
-4.72
-4.99
-5.45
-6.28
-7.52
-9.09
-10.88
-12.87
-15.04
-17.29
-19.34
-20.69
-20.80
-19.20
-15.80
-10.87
-4.99
1.15
6.98
12.11
16.36
19.60
21.72
22.59
22.14
20.49
17.90
14.82
11.68
8.82
6.36
4.27
2.40
0.62
-1.10
-2.71
-4.09
-5.17
-5.96
-6.56
-7.16
-7.91
-8.99
-10.50
-12.55
-15.09
-17.94
-20.68
-22.70
-23.32
-22.05
-18.74
-13.70
-7.53
-0.98
5.34
11.05
15.98
20.02
22.98
24.65
24.86
23.61
21.16
18.00
14.62
11.46
8.72
6.37
4.30
2.34
0.43
-1.42
-3.12
-4.62
-5.88
-6.95
-7.91
-8.85
-9.88
-11.16
-12.81
-14.90
-17.30
-19.60
-21.16
-21.32
-19.64
-16.09
-11.07
-5.24
0.74
6.42
11.56
16.05
19.73
22.38
23.76
23.76
22.51
20.28
17.47
14.45
11.47
8.67
6.09
3.67
1.36
-0.85
-2.90
-4.70
-6.17
-7.29
-8.17
-8.98
-9.95
-11.29
-13.13
-15.45
-18.05
-20.51
-22.23
-22.57
-21.07
-17.65
-12.61
-6.56
-0.21
5.86
11.30
15.92
19.65
22.39
24.05
24.55
23.90
22.24
19.79
16.81
13.59
10.33
7.19
4.26
1.58
-0.82
-2.89
-4.54
-5.71
-6.40
-6.75
-7.01
-7.49
-8.48
-10.11
-12.35
-15.00
-17.75
-20.20
-21.90
-22.43
-21.46
-18.84
-14.66
-9.25
-3.12
3.20
9.22
14.60
19.07
22.44
24.56
25.33
24.75
22.93
20.17
16.83
13.31
9.98
7.04
4.57
2.49
0.68
-0.97
-2.47
-3.82
-4.95
-5.85
-6.59
-7.28
-8.03
-8.97
-10.25
-11.93
-14.05
-16.49
-18.93
-20.86
-21.73
-21.04
-18.57
-14.42
-9.01
-2.93
3.19
8.82
13.56
17.15
19.50
20.60
20.52
19.44
17.62
15.34
12.85
10.37
7.97
5.66
3.38
1.11
-1.11
-3.16
-4.90
-6.20
-7.02
-7.48
-7.76
-8.13
-8.83
-10.06
-11.94
-14.39
-17.12
-19.62
-21.25
-21.39
-19.66
-16.09
-11.05
-5.15
0.96
6.80
12.07
16.63
20.29
22.84
24.03
23.77
22.19
19.63
16.57
13.46
10.54
7.88
5.42
3.05
0.71
-1.62
-3.85
-5.87
-7.53
-8.72
-9.41
-9.71
-9.89
-10.34
-11.40
-13.27
-15.84
-18.70
-21.20
-22.66
-22.48
-20.36
-16.32
-10.68
-4.01
3.04
9.79
15.68
20.33
23.52
25.23
25.51
24.52
22.48
19.69
16.51
13.33
10.43
7.94
5.79
3.78
1.74
-0.39
-2.46
-4.27
-5.62
-6.49
-7.00
-7.40
-7.92
-8.78
-10.14
-12.10
-14.68
-17.73
-20.83
-23.34
-24.48
-23.58
-20.35
-14.98
-8.11
-0.65
6.48
12.65
17.51
21.02
23.30
24.53
24.84
24.34
23.10
21.21
18.81
16.03
13.06
10.06
7.21
4.62
2.40
0.58
-0.86
-1.95
-2.78
-3.43
-4.04
-4.75
-5.70
-6.92
-8.41
-10.12
-12.02
-14.18
-16.63
-19.36
-22.15
-24.54
-25.89
-25.61
-23.32
-19.07
-13.27
-6.57
0.33
6.87
12.68
17.55
21.38
24.04
25.42
25.43
24.12
21.73
18.65
15.37
12.31
9.69
7.54
5.71
4.00
2.32
0.69
-0.79
-2.00
-2.92
-3.61
-4.19
-4.79
-5.50
-6.38
-7.51
-8.99
-10.91
-13.31
-16.02
-18.67
-20.70
-21.47
-20.49
-17.55
-12.86
-6.93
-0.49
5.81
11.47
16.18
19.74
21.95
22.69
21.93
19.85
16.89
13.57
10.40
7.68
5.45
3.59
1.94
0.40
-1.05
-2.34
-3.41
-4.29
-5.02
-5.71
-6.45
-7.26
-8.15
-9.13
-10.32
-11.89
-13.97
-16.48
-19.04
-20.97
-21.52
-20.11
-16.62
-11.39
-5.06
1.64
8.07
13.80
18.50
21.95
23.94
24.40
23.43
21.36
18.60
15.59
12.67
10.06
7.79
5.84
4.09
2.43
0.74
-1.03
-2.84
-4.57
-6.05
-7.14
-7.80
-8.20
-8.59
-9.34
-10.75
-12.92
-15.73
-18.79
-21.52
-23.32
-23.65
-22.20
-18.92
-14.00
-7.90
-1.21
5.40
11.35
16.20
19.77
22.05
23.15
23.18
22.25
20.49
18.06
15.25
12.37
9.67
7.30
5.28
3.53
1.95
0.45
-0.97
-2.31
-3.52
-4.58
-5.47
-6.24
-6.98
-7.87
-9.05
-10.64
-12.66
-15.07
-17.77
-20.51
-22.95
-24.56
-24.78
-23.13
-19.43
-13.86
-7.03
0.27
7.24
13.28
18.08
21.56
23.81
24.94
25.04
24.19
22.48
20.08
17.23
14.21
11.28
8.62
6.31
4.37
2.76
1.46
0.45
-0.35
-1.01
-1.65
-2.37
-3.26
-4.34
-5.60
-7.01
-8.53
-10.16
-11.96
-14.01
-16.39
-19.06
-21.75
-24.03
-25.30
-25.04
-22.95
-19.01
-13.54
-7.03
-0.05
6.82
13.11
18.42
22.42
24.97
26.01
25.66
24.16
21.82
18.99
15.97
13.02
10.32
7.93
5.91
4.23
2.86
1.73
0.77
-0.11
-0.95
-1.79
-2.63
-3.44
-4.25
-5.12
-6.12
-7.28
-8.62
-10.13
-11.87
-13.93
-16.36
-19.06
-21.67
-23.57
-24.10
-22.77
-19.45
-14.42
-8.26
-1.62
4.91
10.88
15.93
19.79
22.25
23.20
22.75
21.14
18.72
15.88
12.90
10.03
7.42
5.19
3.38
1.93
0.72
-0.42
-1.60
-2.85
-4.07
-5.12
-5.91
-6.44
-6.82
-7.18
-7.72
-8.63
-10.09
-12.20
-14.90
-17.85
-20.45
-21.97
-21.76
-19.53
-15.44
-10.01
-3.93
2.13
7.72
12.58
16.57
19.60
21.59
22.47
22.21
20.88
18.70
15.93
12.89
9.88
7.09
4.63
2.53
0.79
-0.63
-1.77
-2.74
-3.66
-4.65
-5.75
-6.91
-8.02
-8.96
-9.75
-10.57
-11.71
-13.46
-15.90
-18.81
-21.65
-23.66
-24.08
-22.38
-18.43
-12.58
-5.53
1.86
8.81
14.73
19.32
22.50
24.28
24.76
24.04
22.32
19.90
17.16
14.46
12.02
9.88
7.93
6.00
4.02
2.08
0.35
-1.01
-1.96
-2.60
-3.13
-3.73
-4.53
-5.55
-6.82
-8.34
-10.11
-12.14
-14.43
-16.97
-19.65
-22.26
-24.36
-25.41
-24.84
-22.30
-17.81
-11.80
-4.94
2.02
8.50
14.12
18.67
22.06
24.21
25.08
24.75
23.39
21.28
18.74
16.02
13.33
10.76
8.33
6.06
3.95
2.05
0.44
-0.81
-1.69
-2.29
-2.80
-3.44
-4.40
-5.68
-7.19
-8.79
-10.39
-12.09
-14.12
-16.65
-19.63
-22.62
-24.88
-25.61
-24.23
-20.65
-15.31
-8.95
-2.34
3.96
9.67
14.69
18.92
22.19
24.24
24.86
24.03
21.99
19.13
15.95
12.83
9.99
7.50
5.27
3.22
1.36
-0.26
-1.53
-2.34
-2.74
-2.90
-3.05
-3.44
-4.20
-5.27
-6.54
-7.92
-9.46
-11.30
-13.55
-16.11
-18.56
-20.25
-20.49
-18.87
-15.41
-10.54
-4.93
0.78
6.12
10.86
14.89
18.11
20.32
21.33
21.02
19.50
17.12
14.32
11.55
9.09
6.99
5.13
3.35
1.54
-0.31
-2.12
-3.75
-5.06
-5.95
-6.41
-6.59
-6.71
-7.04
-7.88
-9.40
-11.65
-14.46
-17.52
-20.30
-22.22
-22.68
-21.28
-17.89
-12.74
-6.42
0.35
6.87
12.63
17.33
20.85
23.13
24.18
24.07
22.90
20.89
18.32
15.45
12.51
9.65
6.93
4.39
2.07
0.00
-1.73
-3.08
-4.02
-4.59
-4.91
-5.17
-5.55
-6.22
-7.29
-8.83
-10.86
-13.39
-16.29
-19.30
-21.96
-23.68
-23.88
-22.18
-18.53
-13.26
-6.90
-0.12
6.50
12.50
17.59
21.58
24.34
25.79
25.91
24.81
22.69
19.87
16.69
13.45
10.41
7.76
5.60
3.93
2.67
1.65
0.70
-0.29
-1.36
-2.45
-3.47
-4.40
-5.29
-6.26
-7.42
-8.86
-10.61
-12.70
-15.13
-17.86
-20.63
-23.02
-24.40
-24.16
-21.89
-17.59
-11.62
-4.60
2.73
9.71
15.82
20.67
24.00
25.74
25.96
24.93
22.96
20.40
17.53
14.55
11.63
8.93
6.61
4.81
3.53
2.68
2.02
1.31
0.37
-0.83
-2.16
-3.45
-4.54
-5.43
-6.24
-7.17
-8.41
-10.08
-12.18
-14.69
-17.48
-20.35
-22.94
-24.71
-25.06
-23.51
-19.90
-14.49
-7.92
-0.98
5.61
11.41
16.19
19.89
22.45
23.76
23.76
22.50
20.24
17.35
14.24
11.26
8.61
6.33
4.38
2.69
1.21
-0.06
-1.11
-1.95
-2.61
-3.17
-3.72
-4.34
-5.10
-6.06
-7.24
-8.66
-10.36
-12.39
-14.73
-17.23
-19.58
-21.33
-21.98
-21.12
-18.54
-14.30
-8.71
-2.32
4.28
10.47
15.73
19.71
22.27
23.44
23.44
22.52
20.94
18.88
16.49
13.90
11.26
8.72
6.41
4.43
2.82
1.56
0.61
-0.10
-0.72
-1.38
-2.22
-3.30
-4.58
-5.97
-7.34
-8.61
-9.84
-11.15
-12.74
-14.79
-17.35
-20.27
-23.10
-25.19
-25.79
-24.38
-20.79
-15.33
-8.65
-1.53
5.34
11.52
16.73
20.81
23.62
25.06
25.12
24.00
22.03
19.66
17.21
14.85
12.57
10.29
7.96
5.66
3.53
1.80
0.58
-0.11
-0.40
-0.51
-0.71
-1.20
-2.09
-3.35
-4.82
-6.33
-7.74
-9.05
-10.43
-12.16
-14.46
-17.39
-20.75
-24.04
-26.63
-27.83
-27.12
-24.26
-19.37
-12.89
-5.49
2.05
9.01
14.89
19.40
22.47
24.16
24.62
23.98
22.46
20.31
17.84
15.31
12.88
10.63
8.49
6.43
4.48
2.74
1.36
0.43
-0.10
-0.38
-0.64
-1.06
-1.73
-2.62
-3.61
-4.64
-5.72
-6.96
-8.49
-10.46
-12.91
-15.72
-18.65
-21.34
-23.34
-24.21
-23.59
-21.26
-17.25
-11.84
-5.54
1.06
7.33
12.77
17.05
19.94
21.41
21.51
20.41
18.41
15.83
13.01
10.24
7.72
5.54
3.73
2.25
1.03
0.00
-0.91
-1.75
-2.58
-3.40
-4.24
-5.13
-6.08
-7.13
-8.32
-9.69
-11.31
-13.22
-15.39
-17.66
-19.68
-20.96
-21.01
-19.48
-16.29
-11.66
-6.07
-0.06
5.87
11.28
15.87
19.41
21.73
22.75
22.50
21.12
18.86
16.05
12.99
9.97
7.19
4.77
2.72
1.00
-0.50
-1.87
-3.16
-4.37
-5.45
-6.34
-7.00
-7.48
-7.92
-8.54
-9.62
-11.34
-13.73
-16.52
-19.19
-21.10
-21.65
-20.48
-17.55
-13.16
-7.79
-1.98
3.80
9.23
14.05
18.07
21.10
22.98
23.59
22.91
21.12
18.48
15.33
12.00
8.80
5.90
3.44
1.44
-0.12
-1.34
-2.33
-3.21
-4.07
-4.93
-5.80
-6.66
-7.55
-8.54
-9.75
-11.30
-13.26
-15.59
-18.11
-20.48
-22.21
-22.82
-21.89
-19.26
-15.00
-9.47
-3.19
3.26
9.35
14.64
18.86
21.86
23.57
24.04
23.35
21.70
19.34
16.56
13.65
10.83
8.26
5.98
4.01
2.36
0.99
-0.09
-0.94
-1.65
-2.35
-3.13
-4.06
-5.15
-6.37
-7.68
-9.11
-10.74
-12.71
-15.14
-17.99
-20.96
-23.53
-25.01
-24.75
-22.40
-17.98
-11.93
-4.94
2.24
8.97
14.76
19.33
22.49
24.18
24.45
23.48
21.57
19.10
16.43
13.80
11.32
9.02
6.86
4.80
2.83
0.97
-0.66
-1.96
-2.82
-3.22
-3.32
-3.37
-3.67
-4.45
-5.79
-7.65
-9.91
-12.44
-15.10
-17.66
-19.74
-20.85
-20.50
-18.38
-14.54
-9.36
-3.42
2.64
8.33
13.34
17.51
20.72
22.82
23.67
23.19
21.45
18.74
15.50
12.21
9.21
6.69
4.59
2.75
1.00
-0.69
-2.24
-3.50
-4.37
-4.84
-5.07
-5.26
-5.67
-6.51
-7.89
-9.82
-12.27
-15.07
-18.00
