1629198550.00
64.000000
-0.00
-0.00
-0.00
-0.00
-0.00
-0.00
-0.00
-0.00
-0.00
-0.00
0.00
0.01
0.01
-0.00
-0.03
-0.05
-0.05
0.00
0.13
0.36
0.66
1.01
1.37
1.72
2.06
2.40
2.79
3.24
3.80
4.42
5.06
5.66
6.20
6.68
7.15
7.68
8.31
9.14
10.09
11.04
11.88
12.56
13.14
13.76
14.65
15.96
17.91
20.32
22.90
25.38
27.58
29.57
31.68
34.32
37.81
42.54
48.15
54.10
59.83
64.97
69.58
74.14
79.34
85.71
93.76
103.00
112.62
121.73
129.77
136.75
143.30
150.75
157.77
166.64
177.95
191.79
206.97
220.57
228.25
225.36
208.53
176.87
132.76
80.05
23.07
-34.94
-92.44
-149.16
-205.23
-260.37
-313.74
-363.87
-409.83
-450.91
-486.50
-515.74
-537.23
-549.22
-549.96
-538.37
-514.21
-478.67
-433.88
-382.45
-327.02
-269.84
-212.63
-156.66
-102.95
-52.37
-5.90
35.58
71.43
101.35
125.50
144.38
158.69
169.15
176.37
180.75
182.57
182.07
179.51
175.23
169.65
163.18
156.15
148.81
141.30
133.69
126.02
118.33
110.69
103.16
95.80
88.68
81.83
75.25
68.95
62.95
57.25
51.86
46.78
42.03
37.59
33.45
29.61
26.07
22.81
19.83
17.11
14.67
12.48
10.54
8.83
7.35
6.07
4.97
4.05
3.27
2.62
2.09
1.65
1.30
1.01
0.79
0.61
0.47
0.37
0.29
0.23
0.19
0.17
0.16
0.16
0.17
0.18
0.21
0.24
0.27
0.31
0.35
0.39
0.44
0.49
0.53
0.58
0.64
0.69
0.75
0.80
0.87
0.96
1.07
1.19
1.31
1.39
1.43
1.44
1.44
1.47
1.59
1.81
2.11
2.45
2.78
3.06
3.29
3.52
3.80
4.20
4.73
5.36
6.02
6.61
7.07
7.42
7.75
8.20
8.90
9.90
11.10
12.31
13.29
13.89
14.13
14.22
14.52
15.31
16.66
18.27
19.60
19.97
18.93
16.40
12.78
8.74
4.94
1.69
-1.32
-4.71
-9.25
-15.35
-22.76
-30.52
-37.35
-42.23
-44.70
-45.19
-44.69
-44.35
-45.01
-47.20
-51.10
-56.47
-62.22
-66.15
-65.23
-56.70
-39.63
-16.05
9.32
30.77
43.91
47.52
43.69
36.33
29.07
23.57
19.51
15.72
11.53
7.54
5.28
6.01
9.76
15.16
19.89
21.72
19.55
13.82
6.10
-1.61
-7.69
-11.50
-13.46
-14.85
-17.06
-21.01
-26.80
-33.68
-40.35
-45.49
-48.28
-48.63
-47.51
-46.45
-47.21
-51.31
-59.59
-71.85
-86.50
-100.74
-109.24
-106.86
-89.80
-57.21
-12.02
39.52
89.67
131.40
160.38
175.75
179.30
174.26
163.90
150.72
136.20
121.26
106.55
92.82
80.90
71.40
64.67
60.59
58.62
57.88
57.38
56.24
53.89
50.17
45.08
38.75
31.23
22.40
12.00
-0.19
-14.15
-29.56
-45.69
-61.70
-76.65
-89.81
-100.88
-110.10
-118.27
-126.73
-137.03
-150.49
-167.39
-186.29
-203.69
-214.46
-213.16
-195.85
-161.57
-113.08
-56.26
1.53
53.39
94.52
122.95
139.20
145.44
144.41
138.59
129.81
119.37
108.21
97.24
87.41
79.65
74.56
72.23
72.23
73.71
75.63
77.02
77.08
75.25
71.20
64.89
56.53
46.38
34.68
21.55
6.96
-8.94
-25.71
-42.59
-58.67
-73.14
-85.69
-96.60
-106.71
-117.20
-129.45
-144.64
-163.29
-184.50
-205.41
-221.25
-226.33
-215.69
-187.16
-142.44
-86.90
-28.06
26.62
71.67
104.59
125.61
136.57
139.78
137.15
130.01
119.45
106.73
93.50
81.63
72.76
67.72
66.25
67.17
68.90
70.07
69.94
68.49
66.08
63.00
59.17
53.95
46.43
35.79
21.71
4.84
-13.40
-31.12
-46.71
-59.41
-69.63
-78.74
-88.56
-100.76
-116.37
-135.47
-156.94
-178.21
-195.32
-203.46
-198.12
-176.63
-139.44
-90.34
-35.63
17.71
63.88
99.44
123.47
136.88
141.41
138.80
130.60
118.34
103.76
88.94
75.95
66.41
61.00
59.32
60.11
61.89
63.47
64.33
64.58
64.39
63.54
61.11
55.68
46.04
31.85
14.06
-5.30
-23.76
-39.40
-51.62
-61.32
-70.66
-82.25
-98.14
-118.97
-143.17
-166.85
-184.41
-189.83
-178.60
-149.32
-104.56
-50.33
5.77
56.64
97.44
126.28
143.64
151.24
150.98
144.51
133.43
119.56
105.04
91.93
81.72
74.85
70.75
68.24
66.18
63.98
61.69
59.86
58.97
58.92
58.72
56.58
50.58
39.36
22.92
2.69
-18.86
-39.13
-56.39
-70.39
-82.12
-93.47
-106.58
-123.19
-143.89
-167.47
-190.43
-207.23
-211.62
-198.74
-167.15
-119.83
-63.35
-5.83
45.54
86.26
114.90
132.14
139.67
139.30
132.68
121.62
108.25
94.87
83.56
75.63
71.26
69.56
69.04
68.19
66.19
63.06
59.55
56.53
54.31
52.23
48.87
42.53
32.07
17.40
-0.34
-19.17
-36.95
-52.17
-64.50
-74.94
-85.55
-98.75
-116.30
-138.33
-162.72
-185.05
-199.53
-200.59
-184.71
-151.77
-105.33
-51.67
2.02
49.60
87.28
113.81
129.84
136.86
136.41
129.93
119.04
105.65
92.03
80.23
71.51
65.93
62.59
60.09
57.41
54.36
51.47
49.59
49.02
49.10
48.20
44.28
35.81
22.45
5.37
-13.25
-31.03
-46.25
-58.54
-68.83
-79.05
-91.49
-108.06
-129.48
-154.61
-180.02
-200.29
-209.19
-201.56
-175.31
-132.46
-78.89
-22.55
28.93
70.30
99.45
117.02
125.09
125.92
121.31
112.59
101.05
88.28
76.05
66.00
59.07
55.22
53.49
52.54
51.25
49.30
47.18
45.71
45.30
45.32
44.09
39.47
29.87
15.05
-3.54
-23.33
-41.63
-56.68
-68.21
-77.42
-86.47
-97.71
-112.89
-132.50
-155.12
-177.17
-193.41
-198.11
-186.84
-158.14
-114.47
-61.68
-7.33
41.47
79.88
105.98
120.42
125.22
122.70
114.92
103.56
90.09
76.05
62.89
51.87
43.78
38.85
36.90
37.38
39.63
42.86
46.12
48.27
48.07
44.49
36.97
25.80
12.05
-2.68
-16.79
-29.26
-39.98
-49.87
-60.62
-74.10
-91.58
-112.81
-135.33
-154.41
-164.13
-159.14
-136.77
-98.32
-49.00
3.63
52.03
90.66
116.99
131.21
135.21
131.37
121.94
108.92
94.14
79.40
66.27
55.92
48.84
44.80
43.01
42.46
42.37
42.27
42.05
41.60
40.41
37.43
31.37
21.29
7.22
-9.63
-27.23
-43.52
-57.28
-68.64
-79.10
-90.94
-106.34
-126.33
-149.87
-173.52
-191.78
-198.54
-189.15
-162.11
-119.88
-68.26
-14.61
34.34
74.03
102.58
120.26
128.60
129.45
124.57
115.59
104.16
91.99
80.76
71.80
65.88
62.91
62.02
62.05
61.95
61.24
60.13
58.89
57.50
55.20
50.74
42.86
31.09
16.07
-0.58
-16.89
-31.26
-43.05
-52.72
-61.87
-72.65
-87.08
-106.24
-129.38
-153.41
-173.20
-182.77
-177.12
-154.11
-115.54
-66.78
-15.33
31.58
68.92
94.84
110.30
117.83
120.00
118.59
114.41
107.85
99.48
90.41
82.01
75.48
71.41
69.56
69.03
68.74
67.87
66.13
63.76
61.25
58.91
56.50
53.05
47.22
37.85
24.65
8.45
-8.88
-25.15
-38.71
-48.98
-56.59
-63.05
-70.12
-79.56
-92.62
-109.86
-130.60
-152.48
-171.35
-181.94
-179.30
-160.58
-126.46
-81.26
-31.74
14.82
52.76
79.38
94.94
101.74
102.70
100.22
95.69
89.67
82.43
74.44
66.66
60.08
55.55
53.29
52.82
53.27
53.74
53.60
52.70
51.18
49.20
46.71
43.32
38.36
31.13
21.20
8.64
-5.86
-21.16
-35.95
-49.08
-59.94
-68.60
-75.74
-82.56
-90.57
-101.29
-115.72
-133.82
-153.83
-172.14
-183.78
-183.84
-169.06
-139.31
-97.89
-50.73
-4.64
34.70
63.99
82.65
92.08
94.65
92.62
87.67
80.96
73.28
65.37
58.03
52.01
47.90
45.94
45.98
47.47
49.63
51.65
52.87
52.88
51.54
48.90
45.01
39.79
32.98
24.29
13.56
0.98
-12.76
-26.64
-39.58
-50.76
-59.90
-67.29
-73.74
-80.37
-88.31
-98.62
-111.89
-127.92
-145.18
-160.66
-170.18
-169.40
-155.30
-127.44
-88.51
-43.76
0.59
39.11
68.51
87.99
98.59
102.11
100.18
93.95
84.37
72.66
60.53
49.91
42.41
38.77
38.61
40.66
43.38
45.61
46.84
47.27
47.40
47.44
47.00
44.88
39.64
30.17
16.39
-0.49
-18.22
-34.33
-47.06
-56.06
-62.44
-68.35
-76.23
-88.14
-105.06
-126.36
-149.37
-169.66
-181.64
-180.18
-162.36
-128.68
-83.28
-32.70
16.09
57.50
88.46
108.53
118.96
121.73
118.79
111.71
101.83
90.46
79.01
68.91
61.43
57.24
56.26
57.59
59.78
61.37
61.46
59.93
57.39
54.68
52.22
49.58
45.52
38.38
26.92
11.08
-7.73
-27.08
-44.37
-57.95
-67.72
-75.15
-82.67
-92.78
-107.24
-126.60
-149.65
-173.23
-192.56
-202.08
-196.87
-174.50
-136.12
-86.50
-32.64
18.34
61.08
92.86
113.43
124.11
126.75
123.25
115.47
105.28
94.56
85.03
77.89
73.60
71.86
71.61
71.53
70.47
68.02
64.56
61.06
58.43
56.86
55.55
52.89
47.10
37.05
22.59
4.74
-14.66
-33.58
-50.37
-64.23
-75.51
-85.59
-96.59
-110.58
-128.69
-150.27
-172.61
-191.20
-200.82
-196.94
-177.10
-141.87
-94.89
-42.00
10.27
56.29
92.42
117.35
131.46
136.20
133.37
124.89
112.74
99.14
86.26
75.92
69.13
65.86
65.15
65.61
65.92
65.35
63.90
62.10
60.45
59.03
57.05
53.07
45.60
33.89
18.36
0.62
-17.28
-33.62
-47.63
-59.62
-70.69
-82.27
-95.78
-112.23
-131.72
-152.80
-172.06
-184.50
-184.95
-169.84
-138.73
-94.90
-44.43
5.68
49.50
83.46
106.49
119.43
124.09
122.54
116.71
108.46
99.54
91.49
85.43
81.89
80.67
80.97
81.74
82.08
81.41
79.49
76.06
70.73
62.94
52.33
38.99
23.71
7.70
-7.77
-21.85
-34.39
-45.93
-57.62
-71.04
-87.73
-108.33
-131.66
-154.10
-169.87
-172.60
-157.69
-124.38
-76.44
-21.29
32.42
77.28
108.92
126.41
131.52
127.35
117.20
103.90
89.49
75.42
62.65
51.73
42.96
36.24
31.25
27.57
24.79
22.57
20.66
18.66
15.96
11.76
5.27
-3.89
-15.46
-28.58
-42.08
-54.90
-66.56
-77.49
-88.98
-102.91
-121.02
-143.92
-170.08
-195.53
-214.30
-220.09
-208.17
-177.23
-129.99
-72.65
-13.08
41.30
85.21
116.41
135.29
144.01
145.29
141.40
133.95
124.01
112.52
100.50
89.17
79.47
71.90
66.25
61.88
57.96
53.75
48.60
42.03
33.69
23.43
11.42
-1.76
-15.34
-28.67
-41.48
-54.04
-67.18
-82.00
-99.70
-120.84
-144.63
-168.30
-187.12
-195.24
-187.70
-162.35
-121.17
-70.02
-16.84
30.87
68.11
93.30
107.68
113.95
114.81
112.14
106.91
99.68
91.01
81.81
73.26
66.61
62.65
61.55
62.69
64.89
66.65
66.70
64.30
59.37
52.31
43.73
34.11
23.68
12.43
0.27
-12.91
-27.28
-43.19
-61.00
-80.66
-100.95
-118.96
-130.38
-130.62
-116.56
-88.08
-48.52
-3.86
39.20
75.16
101.05
116.54
123.18
123.21
118.69
111.14
101.65
91.04
80.21
70.06
61.38
54.79
50.52
48.43
47.97
48.27
48.34
47.13
43.74
37.55
28.44
16.77
3.38
-10.65
-24.29
-36.92
-48.54
-59.85
-72.19
-87.02
-105.27
-126.38
-147.76
-164.84
-172.13
-165.12
-142.07
-105.10
-59.74
-13.15
28.11
60.00
81.45
93.82
99.46
100.55
98.54
94.27
88.52
82.27
76.66
72.63
70.54
69.93
69.75
68.80
66.26
62.04
56.81
51.61
47.26
43.84
40.48
35.66
27.90
16.43
1.65
-15.02
-31.66
-46.62
-59.13
-69.48
-78.87
-88.94
-101.31
-117.00
-135.90
-156.21
-174.34
-185.52
-185.05
-170.00
-140.55
-100.29
-55.17
-11.66
25.19
52.88
71.48
82.65
88.53
90.82
90.57
88.34
84.66
80.18
75.71
72.00
69.59
68.65
68.95
69.98
71.10
71.62
70.94
68.65
64.65
59.07
52.27
44.58
36.19
27.04
16.89
5.51
-7.14
-20.72
-34.57
-47.89
-59.99
-70.48
-79.41
-87.28
-95.04
-103.97
-115.39
-130.13
-147.73
-165.97
-180.76
-187.09
-180.54
-159.02
-123.84
-79.57
-32.60
10.76
46.12
71.70
88.09
97.14
100.89
100.90
98.17
93.49
87.70
81.89
77.20
74.54
74.28
76.15
79.26
82.41
84.40
84.45
82.30
78.19
72.68
66.27
59.18
51.29
42.24
31.61
19.20
5.17
-9.90
-25.02
-39.13
-51.40
-61.51
-69.87
-77.47
-85.76
-96.20
-109.94
-127.33
-147.47
-167.82
-184.20
-191.65
-185.80
-164.46
-128.82
-83.38
-34.72
10.56
47.63
74.48
91.64
101.24
105.74
107.02
106.23
104.03
100.94
97.61
94.72
92.80
91.89
91.54
91.00
89.60
87.17
84.14
81.26
79.10
77.50
75.53
71.76
65.01
55.00
42.53
29.13
16.35
5.03
-4.97
-14.61
-24.97
-36.63
-49.38
-62.26
-74.11
-84.07
-92.05
-98.87
-106.06
-115.49
-128.77
-146.54
-167.74
-189.32
-206.40
-213.44
-205.81
-181.44
-141.86
-92.00
-38.85
10.60
51.23
80.77
99.71
110.28
115.19
116.63
116.01
114.10
111.45
108.59
106.10
104.49
103.94
104.21
104.80
105.11
104.74
103.68
102.20
100.67
99.16
97.22
93.95
88.22
79.31
67.26
53.09
38.42
24.95
13.69
4.62
-3.26
-11.45
-21.24
-33.11
-46.52
-60.12
-72.41
-82.29
-89.65
-95.37
-101.13
-108.92
-120.52
-136.80
-157.08
-178.72
-197.13
-206.66
-202.26
-181.24
-144.61
-97.04
-45.55
2.76
42.63
71.76
90.50
100.75
104.79
104.52
101.33
96.43
91.00
86.24
83.05
81.81
82.27
83.75
85.33
86.27
86.20
85.21
83.70
82.19
80.97
79.77
77.80
73.93
67.17
57.16
44.41
30.26
16.35
4.08
-5.95
-14.04
-21.22
-28.81
-37.78
-48.46
-60.35
-72.36
-83.24
-92.14
-98.91
-104.19
-109.26
-115.71
-125.09
-138.28
-154.96
-173.09
-188.82
-197.13
-193.35
-174.79
-141.93
-98.62
-50.93
-5.22
33.59
62.94
82.55
93.64
97.93
97.08
92.52
85.68
78.06
71.13
66.12
63.68
63.77
65.68
68.40
71.02
73.03
74.50
75.75
77.02
78.08
78.18
76.24
71.44
63.56
53.27
41.83
30.65
20.73
12.30
4.76
-2.97
-11.86
-22.31
-33.93
-45.63
-56.11
-64.47
-70.60
-75.27
-80.01
-86.66
-96.83
-111.25
-129.18
-147.96
-163.30
-170.16
-164.26
-143.65
-109.59
-66.40
-20.23
22.77
57.98
83.15
98.32
105.08
105.54
101.71
95.20
87.20
78.70
70.53
63.50
58.22
54.99
53.74
54.11
55.52
57.41
59.39
61.18
62.43
62.60
60.97
56.78
49.66
39.76
27.87
15.06
2.27
-9.97
-21.69
-33.25
-44.99
-56.97
-68.79
-79.89
-89.81
-98.55
-106.78
-115.79
-127.12
-141.87
-159.93
-179.23
-195.77
-204.37
-200.23
-180.65
-146.20
-100.87
-50.89
-2.88
37.94
68.84
89.72
102.15
108.30
110.07
108.67
104.79
98.93
91.74
84.04
76.75
70.75
66.62
64.63
64.68
66.23
68.41
70.15
70.41
68.55
64.48
58.55
51.26
42.89
33.31
22.15
9.11
-5.69
-21.62
-37.68
-52.87
-66.49
-78.37
-88.81
-98.59
-108.85
-120.96
-136.06
-154.35
-174.36
-192.54
-203.71
-202.55
-185.35
-151.73
-105.07
-51.71
1.01
46.89
82.34
106.65
121.18
128.10
129.35
126.22
119.56
110.24
99.43
88.65
79.38
72.64
68.72
67.15
67.00
67.26
67.21
66.54
65.25
63.40
60.83
57.04
51.19
42.41
30.14
14.51
-3.58
-22.59
-40.77
-56.72
-69.87
-80.64
-90.35
-100.75
-113.59
-130.12
-150.51
-173.50
-196.08
-213.72
-221.24
-214.19
-190.33
-150.76
-99.86
-44.23
9.13
54.62
89.10
112.01
124.58
128.82
126.81
120.34
110.99
100.30
89.73
80.54
73.44
68.58
65.66
64.20
63.89
64.58
66.10
67.99
69.35
68.91
65.38
57.83
46.15
31.09
14.14
-2.86
-18.30
-31.37
-42.34
-52.59
-64.21
-79.27
-98.90
-122.33
-146.51
-166.37
-175.96
-170.27
-147.08
-108.00
-58.16
-4.83
44.79
85.42
114.61
132.45
140.58
141.08
135.93
126.81
115.33
103.11
91.66
82.14
75.11
70.50
67.83
66.50
66.04
66.28
67.06
68.04
68.40
66.83
61.88
52.53
38.72
21.57
3.05
-14.68
-30.15
-43.14
-54.77
-67.12
-82.42
-102.04
-125.48
-149.87
-170.18
-180.36
-175.31
-152.78
-114.49
-65.81
-14.14
33.44
72.01
99.64
116.89
125.68
128.09
125.78
119.98
111.85
102.76
94.16
87.32
82.92
80.82
80.19
79.87
78.86
76.69
73.55
70.10
66.97
64.25
61.20
56.52
48.82
37.25
22.05
4.55
-13.31
-29.63
-43.24
-54.00
-62.85
-71.47
-81.77
-95.37
-112.94
-133.57
-154.46
-171.13
-178.41
-172.00
-150.16
-114.58
-70.11
-23.32
19.44
53.81
78.11
93.02
100.56
103.01
102.23
99.41
95.34
90.61
85.82
81.49
78.07
75.82
74.78
74.71
75.15
75.47
75.01
73.24
69.97
65.27
59.44
52.77
45.43
37.35
28.27
17.97
6.40
-6.21
-19.30
-32.13
-44.02
-54.52
-63.55
-71.46
-78.94
-86.91
-96.44
-108.52
-123.55
-140.66
-157.24
-169.09
-171.36
-160.31
-134.93
-97.68
-53.97
-10.27
27.77
56.87
76.40
87.63
92.63
93.33
91.24
87.43
82.85
78.44
75.01
73.21
73.25
74.94
77.65
80.48
82.57
83.32
82.57
80.60
77.92
74.86
71.34
66.93
60.98
53.04
43.11
31.73
19.85
8.49
-1.50
-9.76
-16.49
-22.40
-28.41
-35.33
-43.48
-52.70
-62.33
-71.67
-80.19
-87.78
-94.75
-101.75
-109.68
-119.52
-132.12
-147.77
-165.52
-182.72
-195.12
-197.86
-187.09
-161.55
-123.49
-78.13
-32.12
8.58
40.14
61.63
74.30
80.48
82.47
81.94
79.84
76.78
73.35
70.23
68.08
67.32
67.99
69.68
71.71
73.36
74.16
73.98
72.96
71.43
69.52
67.02
63.43
58.12
50.65
41.05
29.92
18.32
7.42
-1.85
-9.10
-14.62
-19.22
-24.05
-30.04
-37.74
-46.95
-56.88
-66.39
-74.54
-80.91
-85.87
-90.45
-96.13
-104.36
-116.24
-131.99
-150.52
-169.08
-183.45
-188.66
-180.57
-157.34
-120.48
-74.69
-26.54
17.48
52.65
76.94
90.80
96.25
95.87
92.06
86.72
81.19
76.40
72.84
70.67
69.77
69.81
70.38
71.03
71.49
71.70
71.78
71.91
72.04
71.69
69.95
65.74
58.33
47.71
34.73
20.84
7.53
-4.24
-14.35
-23.47
-32.61
-42.56
-53.43
-64.56
-74.84
-83.20
-89.19
-93.31
-96.97
-102.11
-110.61
-123.60
-140.78
-159.97
-177.11
-187.07
-184.96
-167.83
-135.88
-92.71
-44.36
2.61
42.93
73.78
94.81
107.29
112.98
113.42
109.75
103.08
94.79
86.55
79.97
76.18
75.46
77.27
80.55
84.27
87.78
90.88
93.62
95.86
97.01
95.99
91.52
82.84
70.03
54.25
37.31
21.03
6.49
-6.31
-18.30
-30.79
-44.76
-60.38
-76.84
-92.74
-106.71
-117.97
-126.79
-134.56
-143.41
-155.58
-172.39
-193.31
-215.45
-233.87
-242.71
-236.89
-213.75
-174.07
-121.97
-63.85
-6.71
43.47
82.92
110.40
126.84
134.47
135.98
133.83
129.93
125.50
121.27
117.61
114.63
112.31
110.49
109.02
107.82
106.94
106.49
106.43
106.42
105.71
103.26
98.12
89.80
78.54
65.25
51.12
37.16
23.78
10.65
-2.89
-17.32
-32.62
-48.16
-62.97
-76.26
-87.77
-97.98
-108.02
-119.48
-133.96
-152.37
-174.02
-196.13
-213.86
-221.33
-213.34
-187.32
-144.49
-89.82
-30.62
25.48
72.54
107.37
129.68
141.18
144.54
142.47
137.12
130.05
122.31
114.71
107.94
102.65
99.32
98.07
98.67
100.51
102.76
104.50
104.93
103.54
100.10
94.72
87.69
79.36
69.94
59.44
47.71
34.52
19.73
3.47
-13.81
-31.39
-48.45
-64.22
-78.28
-90.70
-102.18
-114.04
-127.91
-145.10
-165.66
-187.65
-206.92
-217.88
-215.03
-195.03
-158.07
-108.22
-52.35
1.96
48.49
83.78
107.21
120.20
124.94
123.41
117.07
107.14
95.04
82.60
71.95
64.87
62.26
63.71
67.71
72.30
75.77
77.24
76.81
75.10
72.70
69.67
65.31
58.46
48.08
33.78
16.23
-3.02
-21.94
-38.78
-52.60
-63.53
-72.72
-81.94
-93.13
-107.83
-126.62
-148.55
-170.80
-188.90
-197.51
-191.98
-169.88
-132.16
-83.15
-29.52
21.72
65.06
97.65
119.34
131.71
136.92
136.78
132.43
124.69
114.56
103.41
92.96
84.76
79.71
77.89
78.52
80.32
81.94
82.33
80.91
77.71
73.07
67.33
60.51
52.20
41.66
28.35
12.32
-5.65
-24.17
-41.77
-57.42
-70.87
-82.62
-93.72
-105.50
-119.32
-136.27
-156.53
-178.87
-200.18
-215.76
-220.30
-209.56
-181.86
-139.06
-86.25
-30.41
21.48
64.18
95.18
114.61
124.44
127.29
125.50
120.75
114.16
106.53
98.73
91.70
86.28
82.87
81.30
80.85
80.56
79.56
77.36
73.95
69.62
64.73
59.44
53.48
46.16
36.63
24.25
8.95
-8.59
-27.09
-45.04
-61.18
-74.83
-86.05
-95.65
-104.97
-115.67
-129.34
-146.89
-167.76
-189.38
-207.20
-215.57
-209.44
-186.18
-146.85
-96.11
-40.97
11.35
55.32
88.17
109.83
121.95
126.74
126.17
121.67
114.36
105.44
96.35
88.56
83.27
80.97
81.25
83.02
84.87
85.71
85.08
83.25
80.85
78.35
75.51
71.31
64.31
53.34
38.18
19.88
0.45
-17.85
-33.41
-45.81
-55.93
-65.60
-76.91
-91.66
-110.74
-133.61
-157.89
-179.37
-192.57
-192.17
-174.82
-140.57
-93.38
-40.00
12.03
56.54
90.19
112.64
125.55
131.28
131.82
128.47
122.05
113.34
103.41
93.65
85.38
79.57
76.54
75.96
77.04
78.77
80.16
80.35
78.77
75.10
69.31
61.59
52.23
41.49
29.40
15.86
0.80
-15.51
-32.45
-49.12
-64.66
-78.59
-91.02
-102.56
-114.18
-127.06
-142.40
-161.01
-182.65
-205.26
-224.75
-235.50
-231.95
-210.57
-171.38
-118.43
-58.73
-0.17
50.66
89.96
116.96
133.24
141.39
143.90
142.56
138.46
132.29
124.75
116.74
109.29
103.22
98.94
96.24
94.50
92.90
90.78
87.73
83.62
78.44
72.17
64.75
56.06
45.95
34.20
20.59
4.96
-12.47
-30.96
-49.32
-66.17
-80.46
-91.96
-101.41
-110.37
-120.73
-134.22
-151.81
-173.22
-196.39
-217.48
-231.22
-232.08
-216.05
-182.17
-133.29
-75.55
-16.70
36.17
78.22
107.73
125.56
134.17
136.38
134.58
130.48
125.14
119.35
113.66
108.53
104.22
100.67
97.65
94.96
92.66
90.91
89.94
89.58
89.08
87.26
82.94
75.45
64.85
51.92
37.70
23.08
8.53
-5.94
-20.46
-35.17
-49.93
-64.35
-77.83
-89.85
-100.12
-109.03
-117.74
-128.01
-141.75
-159.97
-181.87
-204.23
-221.72
-228.15
-218.43
-190.38
-145.72
-89.89
-30.42
25.13
71.13
104.85
126.37
137.61
141.14
139.24
133.58
125.39
115.79
106.01
97.44
91.32
88.43
88.76
91.52
95.38
98.83
100.68
100.31
97.68
93.16
87.16
79.84
70.96
60.05
46.67
30.77
12.93
-5.71
-23.79
-40.18
-54.27
-66.22
-76.83
-87.34
-99.14
-113.46
-131.05
-151.58
-173.11
-191.87
-202.68
-200.24
-180.97
-144.68
-95.03
-38.78
16.29
63.65
99.58
123.41
136.68
141.71
140.61
134.89
125.69
114.26
102.10
90.84
81.85
75.90
73.00
72.50
73.31
74.30
74.56
73.49
70.94
67.04
61.98
55.84
48.45
39.40
28.25
14.74
-0.97
-18.28
-36.17
-53.48
-69.25
-82.93
-94.63
-105.05
-115.43
-127.30
-142.11
-160.65
-182.27
-204.32
-222.13
-229.95
-222.61
-197.45
-155.64
-102.20
-44.54
9.74
54.91
88.28
109.96
121.86
126.41
125.66
121.08
113.73
104.62
94.88
85.78
78.42
73.48
70.99
70.34
70.51
70.47
69.49
67.34
64.23
60.48
56.22
51.13
44.50
35.51
23.63
8.89
-7.96
-25.53
-42.31
-57.09
-69.32
-79.40
-88.51
-98.17
-109.89
-124.79
-143.11
-163.87
-184.46
-200.69
-207.52
-200.39
-176.96
-138.33
-89.09
-36.04
13.87
55.47
86.32
106.53
117.61
121.40
119.38
112.70
102.55
90.48
78.35
67.95
60.56
56.53
55.33
55.80
56.70
57.25
57.27
57.08
57.00
56.80
55.49
51.57
43.72
31.48
15.58
-2.17
-19.59
-34.91
-47.30
-57.05
-65.32
-73.74
-84.05
-97.67
-115.26
-136.04
-157.33
-174.56
-182.24
-175.59
-152.38
-114.07
-65.56
-13.73
34.71
74.91
104.69
124.08
134.33
136.87
132.95
123.73
110.63
95.53
80.59
67.79
58.41
52.74
50.16
49.43
49.30
49.02
48.45
47.86
47.41
46.68
44.51
39.29
29.66
15.30
-2.81
-22.57
-41.45
-57.44
-69.79
-79.25
-87.77
-97.94
-112.18
-131.75
-155.91
-181.43
-202.77
-213.38
-207.58
-182.68
-140.24
-85.71
-26.90
28.37
74.33
108.08
129.37
139.65
141.14
136.04
126.56
114.73
102.46
91.39
82.65
76.69
73.24
71.25
69.32
66.36
61.98
56.82
52.22
49.38
48.45
48.23
46.45
40.73
29.72
13.53
-6.14
-26.80
-45.94
-61.90
-74.35
-84.34
-94.04
-106.14
-122.76
-144.35
-168.79
-191.43
-205.97
-206.33
-188.72
-153.16
-103.65
-47.12
8.67
57.21
94.66
120.11
134.80
140.88
140.44
135.07
126.05
114.60
102.31
90.92
81.97
76.37
74.07
74.05
74.77
74.68
72.76
68.89
63.84
58.71
54.33
50.65
46.53
40.24
30.21
15.88
-1.95
-21.47
-40.58
-57.62
-71.90
-83.75
-94.22
-104.79
-117.06
-132.43
-151.53
-173.41
-194.90
-210.88
-215.30
-203.32
-173.13
-127.16
-71.42
-13.77
38.49
80.55
110.64
129.45
138.84
140.60
136.06
126.35
112.94
97.94
83.82
72.81
66.15
63.76
64.40
66.29
67.81
68.00
66.70
64.32
61.47
58.42
55.00
50.45
43.72
33.94
20.76
4.67
-13.09
-31.04
-47.81
-62.61
-75.37
-86.69
-97.59
-109.39
-123.47
-140.79
-161.20
-182.70
-201.24
-211.37
-207.82
-187.36
-150.22
-100.39
-44.44
10.36
58.03
95.03
120.34
134.73
139.78
137.09
128.15
114.63
98.64
82.64
69.08
59.68
54.90
53.91
55.07
56.74
57.97
58.58
58.90
59.15
58.89
56.98
52.05
43.08
30.03
13.99
-3.13
-19.27
-32.94
-43.94
-53.32
-63.13
-75.69
-92.65
-114.15
-138.19
-160.58
-175.64
-177.75
-163.10
-131.26
-85.63
-32.63
20.24
66.57
102.40
126.70
140.48
145.62
143.87
136.51
124.62
109.51
92.92
76.94
63.57
54.19
49.22
48.04
49.26
51.26
52.76
53.17
52.52
51.08
48.77
44.84
38.04
27.23
12.13
-6.31
-26.05
-44.70
-60.41
-72.61
-82.16
-90.93
-101.26
-115.23
-133.99
-157.13
-182.24
-204.77
-218.75
-218.35
-199.80
-162.94
-111.75
-53.23
4.61
55.04
94.10
120.79
136.23
142.49
141.51
134.90
124.04
110.55
96.33
83.40
73.35
66.90
63.73
62.64
62.19
61.26
59.43
57.05
54.84
53.29
52.14
50.25
45.84
37.26
23.73
5.86
-14.50
-34.75
-52.59
-66.82
-77.69
-86.80
-96.47
-109.07
-126.26
-148.25
-173.11
-196.69
-213.11
-216.24
-201.69
-168.55
-120.07
-62.89
-4.99
46.60
87.50
116.27
133.79
141.98
142.79
137.80
128.36
115.98
102.46
89.79
79.69
73.11
69.93
69.05
68.96
68.37
66.76
64.47
62.33
60.94
60.09
58.63
54.78
46.89
34.13
16.99
-2.87
-23.16
-41.69
-57.17
-69.58
-80.10
-90.62
-103.27
-119.67
-140.27
-163.85
-187.19
-205.35
-212.63
-204.21
-177.89
-135.21
-81.39
-23.85
29.92
74.34
106.79
127.30
137.53
139.52
135.04
125.52
112.45
97.70
83.38
71.45
63.18
58.76
57.35
57.59
58.10
58.07
57.36
56.47
55.88
55.60
54.80
51.88
45.10
33.39
17.03
-2.31
-22.03
-39.66
-53.72
-64.28
-72.74
-81.28
-92.08
-106.75
-125.76
-148.11
-170.94
-189.69
-198.78
-193.23
-170.36
-131.15
-80.20
-24.60
28.27
72.69
105.65
126.72
137.05
138.47
132.70
121.50
106.77
90.73
75.64
63.31
54.73
49.89
47.98
47.84
48.46
49.19
49.79
50.15
49.99
48.53
44.63
37.14
25.43
9.86
-8.12
-26.45
-43.20
-57.38
-69.31
-80.61
-93.59
-110.37
-131.76
-156.40
-180.52
-198.38
-203.78
-192.09
-161.99
-116.29
-61.28
-4.81
46.05
86.63
115.29
132.67
140.58
140.93
135.33
125.25
112.37
98.57
85.75
75.43
68.31
64.13
62.01
60.90
60.07
59.32
58.82
58.66
58.36
56.72
52.06
42.91
28.76
10.46
-9.98
-30.04
-47.61
-61.76
-73.08
-83.46
-95.48
-111.58
-133.01
-158.84
-185.58
-207.51
-218.04
-211.72
-186.18
-143.22
-88.41
-29.54
25.77
71.81
105.79
127.51
138.43
140.68
136.43
127.68
116.37
104.33
93.15
83.87
76.83
71.73
67.88
64.58
61.61
59.13
57.52
56.97
57.03
56.49
53.66
46.90
35.33
19.24
0.09
-19.91
-38.61
-54.61
-67.73
-79.15
-91.04
-105.89
-125.37
-149.24
-174.58
-195.94
-206.62
-200.76
-175.62
-132.78
-77.92
-19.03
35.91
81.15
114.00
134.55
144.51
146.04
141.11
131.44
118.75
104.94
91.96
81.37
73.93
69.44
66.91
65.19
63.50
61.69
60.11
59.13
58.59
57.44
54.06
46.81
34.82
18.51
-0.49
-19.83
-37.42
-52.20
-64.48
-75.80
-88.38
-104.23
-124.23
-147.41
-170.58
-188.59
-195.52
-186.52
-159.63
-116.85
-63.90
-8.44
42.22
83.12
112.36
130.57
139.61
141.29
136.96
127.69
114.83
100.29
86.30
74.82
66.96
62.65
60.94
60.48
60.19
59.61
58.93
58.59
58.62
58.29
56.07
50.20
39.49
24.04
5.42
-13.84
-31.20
-45.07
-55.37
-63.58
-72.10
-83.57
-99.91
-121.53
-146.65
-171.20
-189.38
-195.15
-184.15
-155.39
-111.87
-59.86
-6.90
40.35
77.71
103.84
119.55
126.59
126.72
121.41
111.90
99.64
86.42
74.15
64.43
58.06
54.83
53.63
52.98
51.67
49.34
46.50
44.12
42.90
42.63
41.99
38.98
31.82
19.75
3.50
-14.93
-32.99
-48.48
-60.32
-68.84
-75.63
-83.00
-93.27
-108.04
-127.48
-149.83
-171.19
-186.22
-189.35
-176.60
-147.06
-103.60
-52.21
-0.20
45.86
81.78
106.20
120.02
125.16
123.55
116.71
105.91
92.60
78.60
65.97
56.41
50.84
49.02
49.74
51.31
52.27
51.93
50.42
48.45
46.64
45.02
42.76
38.40
30.56
18.59
3.05
-14.41
-31.53
-46.37
-57.95
-66.59
-73.75
-81.42
-91.52
-105.25
-122.58
-141.89
-159.89
-172.07
-173.63
-161.04
-133.35
-92.90
-44.87
4.18
48.24
83.25
107.65
121.87
127.26
125.31
117.32
104.69
89.20
73.06
58.59
47.57
40.78
37.83
37.55
38.52
39.67
40.49
41.04
41.41
41.35
40.01
36.09
28.36
16.23
0.30
-17.80
-35.74
-51.57
-64.31
-74.49
-83.91
-94.98
-109.86
-129.47
-152.81
-176.64
-195.89
-204.75
-198.38
-174.60
-134.93
-84.40
-30.11
20.88
63.45
95.27
116.47
128.46
132.85
130.84
123.43
111.91
98.14
84.35
72.61
64.11
59.00
56.47
55.28
54.33
53.13
51.72
50.49
49.62
48.76
46.78
42.14
33.43
20.16
3.02
-16.19
-35.21
-52.16
-66.25
-77.89
-88.56
-100.30
-115.12
-134.30
-157.66
-182.78
-204.96
-217.96
-215.81
-194.80
-155.24
-101.65
-41.60
16.62
66.38
104.02
129.05
143.21
149.04
148.81
144.06
135.77
124.81
112.35
99.95
89.28
81.64
77.51
76.46
77.33
78.76
79.62
79.29
77.64
74.74
70.65
65.13
57.79
48.20
36.19
21.83
5.62
-11.72
-29.38
-46.57
-62.65
-77.24
-90.29
-102.16
-113.72
-126.28
-141.36
-160.06
-182.08
-205.10
-224.55
-234.55
-229.47
-205.99
-164.45
-109.07
-46.91
14.14
67.39
108.70
136.74
152.46
158.01
155.86
148.21
136.93
123.62
109.75
96.78
86.04
78.56
74.76
74.41
76.60
80.04
83.29
85.18
84.98
82.41
77.58
70.70
61.93
51.32
38.82
24.45
8.36
-9.00
-26.94
-44.59
-61.15
-75.99
-88.91
-100.28
-111.04
-122.60
-136.52
-153.84
-174.33
-195.89
-214.48
-224.80
-221.68
-201.67
-164.40
-113.01
-53.51
6.77
60.98
104.35
134.70
152.27
158.81
156.73
148.37
135.86
121.14
106.09
92.39
81.42
74.02
70.44
70.42
73.30
78.13
83.70
88.54
91.22
90.64
86.27
78.33
67.67
55.38
42.61
30.10
18.08
6.19
-6.28
-20.01
-35.20
-51.37
-67.37
-81.87
-93.96
-103.61
-111.76
-120.16
-130.87
-145.52
-164.29
-185.26
-204.11
-214.83
-211.42
-189.97
-150.47
-97.17
-37.44
20.44
69.69
106.52
130.26
142.40
145.32
141.21
131.77
118.39
102.58
86.18
71.33
60.05
53.68
52.46
55.39
60.64
66.16
70.35
72.54
72.91
72.03
70.24
67.24
62.10
53.64
41.20
25.10
6.76
-11.73
-28.36
-41.92
-52.41
-60.87
-68.98
-78.53
-91.02
-107.34
-127.31
-149.16
-169.27
-182.42
-183.13
-167.41
-134.51
-87.62
-33.08
21.57
69.87
107.80
134.15
149.67
155.91
154.34
146.15
132.58
115.25
96.37
78.43
63.74
53.87
49.30
49.28
52.16
55.88
58.65
59.44
58.12
55.19
51.29
46.60
40.71
32.68
21.62
7.13
-10.19
-28.91
-47.18
-63.39
-76.79
-87.67
-97.28
-107.36
-119.69
-135.61
-155.51
-178.27
-200.83
-218.30
-224.91
-215.63
-188.10
-143.87
-88.40
-29.43
25.33
70.22
102.70
123.01
132.99
134.78
130.19
120.70
107.77
93.20
79.00
67.03
58.53
53.80
52.20
52.46
53.27
53.70
53.47
52.83
52.13
51.38
49.81
46.06
38.67
26.72
10.36
-9.12
-29.65
-49.10
-65.95
-79.77
-91.24
-101.96
-114.05
-129.49
-149.34
-173.00
-197.67
-218.51
-229.74
-226.15
-204.85
-166.34
-114.58
-56.03
2.16
53.69
94.47
122.78
139.01
144.82
142.36
133.85
121.35
106.84
92.27
79.41
69.59
63.33
60.19
59.05
58.55
57.78
56.55
55.29
54.53
54.24
53.44
50.42
43.36
31.29
14.59
-4.96
-24.85
-42.83
-57.64
-69.44
-79.62
-90.28
-103.66
-121.34
-143.45
-168.04
-190.92
-206.30
-208.34
-192.98
-159.58
-111.35
-54.63
3.01
54.69
95.74
124.20
140.36
145.99
143.39
134.86
122.44
107.98
93.11
79.34
67.97
59.90
55.48
54.49
56.28
59.96
64.51
68.86
71.82
72.05
68.28
59.75
46.53
29.70
11.10
-7.19
-23.66
-37.75
-50.14
-62.60
-77.39
-96.26
-119.40
-144.57
-166.94
-180.12
-178.06
-157.29
-118.44
-66.27
-8.35
47.30
94.31
129.17
151.11
161.34
161.91
155.03
142.89
127.67
111.58
96.68
84.50
75.77
70.29
67.12
65.14
63.51
61.94
60.58
59.62
58.75
56.97
52.76
44.74
32.26
15.86
-2.85
-21.79
-39.14
-54.05
-66.93
-79.34
-93.51
-111.55
-134.40
-160.90
-187.29
-207.66
-215.40
-205.44
-176.14
-130.27
-74.34
-16.52
35.70
77.38
106.72
124.37
132.31
132.70
127.45
118.25
106.81
94.86
84.00
75.30
69.05
64.75
61.49
58.46
55.37
52.52
50.51
49.67
49.51
48.67
45.25
37.58
25.02
8.35
-10.46
-28.95
-45.10
-58.08
-68.46
-78.05
-89.23
-104.14
-123.82
-147.32
-171.37
-190.66
-199.06
-191.53
-166.02
-124.50
-72.66
-18.16
31.63
71.61
99.71
116.47
123.81
123.91
118.63
109.53
98.16
86.18
75.21
66.36
59.99
55.76
52.84
50.49
48.42
46.89
46.39
47.13
48.56
49.20
47.07
40.44
28.70
12.75
-5.25
-22.68
-37.58
-49.23
-58.40
-66.88
-76.95
-90.47
-108.12
-128.71
-148.88
-163.47
-166.81
-154.71
-126.16
-84.14
-34.77
14.56
57.45
90.04
111.25
122.00
124.11
119.45
109.66
96.41
81.45
66.61
53.52
43.31
36.45
32.81
31.82
32.75
34.81
37.19
38.95
39.07
36.41
30.08
19.77
5.97
-10.07
-26.67
-42.31
-56.14
-68.26
-79.72
-92.20
-107.50
-126.71
-149.36
-172.68
-191.78
-200.63
-193.98
-169.39
-128.50
-76.78
-21.98
28.29
68.55
96.50
112.60
119.03
118.49
113.36
105.49
96.32
87.01
78.45
71.15
65.24
60.54
56.73
53.60
51.24
49.83
49.40
49.51
49.13
46.74
40.96
31.00
17.15
0.69
-16.50
-32.57
-46.42
-58.06
-68.76
-80.65
-96.02
-116.23
-140.54
-165.55
-185.46
-193.69
-185.02
-157.82
-114.85
-62.58
-9.09
38.52
75.88
101.80
117.47
125.05
126.54
123.39
116.69
107.64
97.79
88.80
81.91
77.51
75.06
73.26
70.87
67.21
62.55
57.85
54.21
52.14
51.03
49.35
45.09
36.66
23.65
6.95
-11.45
-29.32
-45.03
-58.15
-69.59
-81.17
-94.96
-112.42
-133.68
-156.95
-178.41
-192.85
-194.97
-181.00
-150.37
-106.26
-54.93
-3.78
40.88
75.40
99.14
113.57
120.83
122.58
119.75
112.93
102.99
91.49
80.41
71.66
66.44
64.86
65.94
68.08
69.68
69.65
67.79
64.60
60.88
57.08
52.90
47.30
39.12
27.66
13.18
-3.07
-19.35
-34.09
-46.45
-56.49
-65.04
-73.40
-83.07
-95.41
-111.22
-130.20
-150.28
-167.49
-176.62
-172.66
-152.69
-117.23
-70.49
-19.16
29.63
70.34
100.27
119.39
129.44
132.51
130.29
123.80
113.85
101.58
88.78
77.61
70.01
66.99
68.25
72.24
76.84
80.13
81.14
79.97
77.47
74.47
71.11
66.54
59.24
47.83
31.79
11.90
-9.90
-31.29
-50.34
-66.09
-78.71
-89.20
-99.00
-109.59
-122.28
-138.06
-157.05
-177.93
-197.49
-210.82
-212.46
-198.27
-167.19
-122.08
-69.11
-15.95
30.53
66.09
89.69
102.85
108.34
108.84
106.16
101.28
94.75
87.17
79.44
72.68
67.84
65.36
64.91
65.53
66.09
65.67
63.93
61.14
57.83
54.42
50.86
46.56
40.59
31.94
20.01
4.87
-12.54
-30.57
-47.33
-61.28
-71.84
-79.60
-86.09
-93.31
-103.13
-116.80
-134.70
-155.85
-177.59
-195.48
-204.01
-198.02
-174.67
-134.94
-83.78
-28.77
22.29
63.66
92.91
110.65
119.18
121.09
118.29
112.00
103.12
92.76
82.34
73.39
67.09
63.94
63.64
65.23
67.44
69.07
69.30
67.85
64.86
60.70
55.69
49.84
42.85
34.11
23.05
9.43
-6.42
-23.55
-40.69
-56.60
-70.41
-82.00
-91.92
-101.30
-111.61
-124.36
-140.59
-160.20
-181.34
-200.13
-211.22
-209.18
-190.49
-155.08
-106.77
-52.27
0.83
46.28
80.58
103.14
115.39
119.60
117.91
112.00
103.17
92.61
81.53
71.19
62.71
56.91
54.07
53.90
55.54
57.79
59.44
59.71
58.39
55.82
52.46
48.47
43.49
36.68
27.19
14.57
-0.79
-17.78
-34.84
-50.48
-63.79
-74.62
-83.64
-92.07
-101.47
-113.36
-128.68
-147.26
-167.18
-184.67
-194.76
-192.49
-174.64
-141.02
-94.80
-41.76
11.35
58.55
95.79
121.43
135.79
140.39
137.21
128.34
115.79
101.52
87.55
75.73
67.46
63.29
62.67
64.13
65.88
66.57
65.79
64.11
62.40
61.12
59.71
56.61
49.97
38.58
22.39
2.74
-18.07
-37.64
-54.23
-67.29
-77.66
-87.31
-98.79
-114.36
-134.90
-159.09
-183.15
-201.40
-207.74
-197.52
-169.21
-125.00
-70.39
-12.65
41.20
85.97
119.03
140.17
150.67
152.39
147.17
136.76
122.99
107.92
93.75
82.37
74.87
71.23
70.43
70.96
71.44
71.11
69.96
68.44
66.99
65.49
63.11
58.41
49.91
36.74
19.17
-1.33
-22.56
-42.35
-59.25
-73.01
-84.51
-95.48
-108.01
-124.01
-144.46
-168.55
-193.23
-213.32
-222.63
-215.84
-190.38
-147.54
-92.35
-32.10
25.73
75.19
112.91
137.98
151.33
154.86
150.73
141.13
128.17
113.95
100.36
88.94
80.52
75.09
71.86
69.69
67.61
65.28
62.94
61.05
59.73
58.28
55.20
48.73
37.59
21.70
2.28
-18.43
-38.06
-54.89
-68.50
-79.85
-90.96
-104.24
-121.65
-143.80
-169.22
-194.12
-212.93
-219.59
-209.36
-180.54
-135.32
-79.36
-20.21
34.81
80.30
113.65
134.78
145.16
146.97
142.29
132.95
120.53
106.48
92.10
78.56
66.80
57.49
51.04
47.57
46.95
48.76
52.20
56.12
59.04
59.23
55.07
45.68
31.27
13.26
-6.00
-24.04
-39.16
-51.12
-61.13
-71.51
-84.81
-102.84
-125.54
-150.44
-172.60
-185.57
-183.22
-161.82
-121.75
-67.70
-7.54
50.05
97.91
131.94
151.36
157.87
154.37
143.97
129.33
112.56
95.41
79.35
65.50
54.70
47.27
42.98
41.18
41.01
41.59
42.16
42.10
40.78
37.41
31.11
21.20
7.58
-9.00
-27.09
-44.91
-61.08
-75.17
-88.00
-101.50
-117.96
-138.88
-163.86
-189.85
-211.46
-222.20
-216.47
-191.61
-148.88
-93.36
-32.51
25.86
75.46
112.63
136.38
147.92
149.59
144.06
133.73
120.52
105.89
91.02
77.02
64.97
55.80
50.03
47.67
48.13
50.35
53.00
54.68
54.12
50.33
42.75
31.34
16.69
-0.10
-17.70
-34.89
-51.07
-66.54
-82.58
-100.97
-122.97
-148.19
-173.80
-194.70
-204.55
-197.82
-171.75
-127.62
-70.65
-8.68
49.92
98.30
132.58
152.19
159.26
157.37
150.20
140.38
129.27
117.17
104.13
90.56
77.50
66.28
57.95
52.92
50.73
50.25
50.01
48.61
44.91
38.28
28.64
16.49
2.66
-12.15
-27.60
-43.75
-61.06
-80.22
-101.86
-126.11
-152.03
-176.98
-196.48
-204.94
-197.24
-170.76
-126.83
-70.77
-10.51
45.79
91.96
124.93
144.68
153.16
153.05
146.85
136.54
123.55
108.99
93.95
79.58
67.06
57.36
51.01
47.93
47.40
48.23
49.06
48.59
45.69
39.58
29.94
16.95
1.37
-15.57
-32.54
-48.60
-63.59
-78.35
-94.61
-114.30
-138.45
-166.05
-193.41
-214.47
-222.29
-211.37
-179.76
-130.27
-69.80
-7.40
48.45
91.98
121.00
136.46
141.06
137.88
129.51
117.92
104.70
91.33
79.22
69.49
62.60
58.30
55.75
54.03
52.54
51.13
49.87
48.74
47.10
43.73
37.18
26.43
11.39
-6.87
-26.39
-45.15
-61.75
-76.00
-89.02
-102.87
-119.78
-140.93
-165.42
-189.69
-207.95
-213.63
-201.51
-169.84
-121.27
-62.33
-1.56
53.12
96.38
126.28
143.76
151.25
151.31
145.76
135.72
122.23
106.73
91.38
78.62
70.43
67.54
69.09
73.09
77.11
79.31
78.85
75.92
71.20
65.33
58.45
50.12
39.62
26.30
10.01
-8.72
-28.64
-48.14
-65.68
-80.38
-92.36
-102.67
-113.06
-125.44
-141.33
-161.16
-183.80
-206.23
-223.69
-230.64
-222.23
-196.10
-153.44
-99.12
-40.37
15.20
61.74
96.16
118.21
129.50
132.22
128.32
119.30
106.51
91.62
76.81
64.46
56.54
53.88
55.84
60.55
65.63
69.13
70.06
68.68
65.92
62.74
59.43
55.41
49.48
40.42
27.70
11.84
-5.67
-22.86
-37.96
-50.06
-59.33
-66.94
-74.69
-84.46
-97.71
-114.91
-135.01
-155.16
-170.88
-176.91
-168.68
-143.97
-103.98
-53.34
1.15
52.47
95.26
126.74
146.61
156.09
156.74
150.05
137.36
120.38
101.50
83.59
69.31
60.37
56.93
57.70
60.56
63.46
65.06
65.04
63.72
61.41
57.90
52.28
43.21
29.74
11.88
-9.01
-30.59
-50.30
-66.38
-78.52
-88.05
-97.47
-109.66
-126.81
-149.33
-175.24
-200.06
-217.59
-221.52
-207.37
-174.18
-125.09
-66.59
-6.70
47.23
90.23
120.29
138.05
145.67
145.72
140.48
131.61
120.43
108.13
96.01
85.38
77.20
71.74
68.44
66.23
64.10
61.62
59.05
57.08
55.96
55.06
52.77
46.98
35.99
19.44
-1.46
-24.20
-45.83
-64.03
-77.89
-88.22
-97.25
-107.95
-123.02
-143.74
-169.07
-195.32
-216.56
-226.05
-218.28
-190.79
-145.36
-87.69
-25.82
32.14
80.08
115.01
136.86
147.42
149.14
144.21
134.42
121.39
106.95
93.08
81.69
74.05
70.31
69.49
69.92
69.93
68.54
65.71
62.19
58.90
56.18
53.44
49.19
41.67
29.60
12.89
-7.20
-28.52
-48.69
-66.01
-79.98
-91.35
-101.84
-113.68
-128.93
-148.69
-172.26
-196.55
-216.31
-225.22
-217.69
-190.95
-146.21
-88.65
-25.96
33.79
84.22
121.87
146.13
158.49
161.31
156.96
147.39
134.17
118.85
103.22
89.24
78.72
72.70
71.07
72.54
75.18
77.13
77.21
75.21
71.71
67.39
62.63
57.02
49.64
39.30
25.29
7.75
-12.17
-32.63
-51.70
-67.95
-80.98
-91.44
-100.79
-110.96
-123.91
-141.03
-162.40
-186.10
-207.92
-221.94
-222.01
-203.82
-166.67
-114.04
-52.78
8.92
63.78
107.09
137.09
154.38
160.82
158.47
149.30
135.07
117.80
99.73
83.34
70.80
63.36
60.97
62.32
65.35
68.04
69.10
68.30
66.29
63.92
61.55
58.65
53.89
45.67
32.93
15.79
-4.33
-25.12
-44.30
-60.38
-73.15
-83.63
-93.62
-105.07
-119.67
-138.23
-160.18
-183.10
-202.64
-213.16
-209.28
-187.74
-148.89
-97.02
-39.22
16.78
64.72
101.06
124.96
137.52
140.43
135.36
123.84
107.56
88.70
69.85
53.59
41.88
35.50
33.85
35.28
37.72
39.45
39.67
38.58
36.96
35.39
33.75
30.94
25.43
15.97
2.37
-14.27
-31.92
-48.41
-62.32
-73.50
-83.03
-92.72
-104.45
-119.60
-138.40
-159.63
-180.40
-196.32
-202.35
-194.16
-169.58
-129.69
-78.87
-23.67
28.91
73.31
106.47
127.78
138.32
139.79
133.88
122.11
106.16
88.10
70.27
54.89
43.54
36.68
33.87
34.04
36.05
39.04
42.50
45.98
48.77
49.77
47.64
41.22
30.12
15.01
-2.36
-19.71
-34.99
-47.12
-56.38
-64.42
-73.64
-86.46
-104.29
-126.64
-150.56
-170.95
-181.63
-177.22
-155.09
-116.56
-66.77
-13.19
36.63
77.04
105.25
121.14
126.17
122.37
111.74
96.15
77.45
57.67
38.81
22.53
9.85
1.10
-3.90
-5.54
-4.11
0.13
6.90
15.43
24.37
31.87
36.11
35.88
31.09
22.74
12.51
2.00
-7.90
-17.41
-27.77
-40.90
-58.57
-81.58
-108.68
-136.12
-157.98
-167.60
-159.56
-131.83
-86.76
-30.61
28.22
81.60
123.65
151.63
165.75
168.06
161.47
148.89
132.93
115.75
99.14
84.40
72.34
63.26
56.97
52.94
50.59
49.39
48.96
48.96
48.88
47.84
44.64
38.04
27.33
12.67
-4.76
-23.18
-40.78
-56.50
-70.42
-83.90
-99.12
-118.17
-141.89
-168.87
-194.98
-214.15
-219.86
-207.30
-175.14
-126.36
-67.45
-6.64
48.37
92.16
122.39
139.40
145.38
143.13
135.27
123.91
110.69
96.95
83.98
72.87
64.39
58.74
55.53
54.02
53.53
53.64
54.14
54.72
54.58
52.39
46.54
35.94
20.52
1.49
-18.97
-38.43
-55.04
-68.25
-79.01
-89.57
-102.78
-121.00
-144.72
-171.70
-196.88
-213.46
-214.83
-196.88
-159.46
-106.64
-45.55
15.61
69.72
112.14
141.11
157.17
162.19
158.55
148.53
134.26
117.92
101.73
87.73
77.47
71.56
69.43
69.60
70.27
70.02
68.29
65.40
62.11
58.97
55.73
51.27
43.90
32.21
15.79
-4.40
-26.25
-47.30
-65.63
-80.53
-92.68
-103.90
-116.52
-132.69
-153.46
-177.94
-202.90
-222.98
-231.98
-224.65
-198.49
-154.88
-98.87
-37.75
20.90
71.01
109.01
133.91
146.59
148.91
143.05
131.13
115.26
97.70
80.85
67.04
57.97
54.21
54.90
58.15
61.75
64.05
64.41
63.13
60.88
57.99
54.00
47.91
38.62
25.52
8.92
-10.00
-29.56
-48.05
-64.34
-78.12
-90.10
-101.84
-115.35
-132.33
-153.40
-177.21
-200.32
-217.66
-223.87
-214.71
-188.44
-146.42
-92.81
-33.63
24.57
76.08
116.87
144.91
160.07
163.58
157.60
144.75
127.88
109.87
93.29
80.12
71.42
67.27
66.83
68.77
71.71
74.64
76.90
78.08
77.76
75.26
69.64
60.06
46.19
28.64
8.96
-10.70
-28.34
-42.84
-54.49
-64.92
-76.64
-92.10
-112.52
-136.99
-162.10
-182.21
-190.90
-182.84
-155.70
-111.21
-54.89
5.44
61.92
108.61
142.49
163.29
172.50
172.27
164.60
151.16
133.63
114.06
94.88
78.62
67.24
61.45
60.55
62.69
65.70
67.93
68.63
67.95
66.22
63.40
58.64
50.62
38.13
20.86
-0.22
-23.11
-45.40
-65.07
-81.21
-94.28
-105.91
-118.47
-134.35
-155.06
-180.31
-207.40
-231.32
-245.76
-244.89
-225.08
-186.27
-132.08
-68.88
-4.18
55.06
103.72
139.05
160.57
169.63
168.66
160.54
148.09
133.68
119.30
106.42
96.16
89.14
85.34
84.03
83.94
83.79
82.74
80.68
78.15
75.77
73.54
70.47
64.82
54.70
38.99
18.03
-6.43
-31.79
-55.47
-75.71
-91.96
-104.86
-116.08
-127.88
-142.70
-162.26
-186.51
-212.80
-235.93
-249.27
-246.68
-224.60
-183.24
-126.69
-61.81
3.58
62.47
109.91
143.49
163.19
170.69
168.61
159.71
146.49
131.18
115.71
101.94
91.42
85.07
82.75
83.30
84.87
85.69
84.63
81.53
77.01
72.03
67.19
62.26
56.11
47.16
34.01
16.30
-4.98
-27.78
-49.66
-68.76
-84.41
-97.17
-108.64
-120.88
-135.92
-155.07
-178.14
-202.77
-224.37
-236.84
-234.28
-212.90
-172.49
-116.69
-52.20
13.06
71.77
118.71
151.33
169.62
175.46
171.68
161.21
146.65
130.04
113.15
97.66
85.19
76.99
73.47
73.99
77.00
80.64
83.24
83.79
82.03
78.18
72.68
65.88
57.80
48.14
36.40
22.14
5.34
-13.47
-33.26
-52.78
-70.93
-87.11
-101.20
-113.62
-125.26
-137.48
-151.88
-169.80
-191.26
-214.17
-234.03
-244.81
-240.58
-217.60
-175.73
-118.68
-53.22
12.67
71.64
118.45
150.59
168.24
173.39
168.95
157.83
142.51
125.05
107.30
91.08
78.17
69.88
66.54
67.46
71.07
75.49
79.09
80.75
80.00
76.88
71.63
64.47
55.47
44.47
31.23
15.65
-1.98
-20.95
-40.16
-58.47
-75.03
-89.36
-101.58
-112.33
-122.71
-134.34
-148.95
-167.75
-190.38
-214.19
-234.17
-244.03
-238.02
-212.91
-169.18
-111.23
-46.06
18.45
75.38
120.06
150.52
167.12
171.83
167.32
156.26
141.00
123.53
105.74
89.46
76.47
68.07
64.74
65.93
70.24
75.83
80.88
84.03
84.61
82.55
78.16
71.75
63.46
53.10
40.34
25.05
7.52
-11.37
-30.38
-48.31
-64.26
-77.97
-89.85
-100.83
-112.29
-125.81
-142.76
-163.61
-187.15
-209.94
-226.72
-231.53
-219.50
-188.58
-140.41
-80.19
-15.25
46.73
99.45
139.05
164.36
176.39
177.44
170.21
157.23
140.65
122.28
103.94
87.55
74.92
67.21
64.51
65.74
69.00
72.28
74.10
73.86
71.74
68.19
63.45
57.25
48.83
37.39
22.55
4.65
-15.19
-35.37
-54.32
-70.91
-84.80
-96.53
-107.37
-119.14
-133.68
-152.28
-174.83
-199.21
-221.16
-234.99
-235.03
-217.33
-181.08
-129.09
-67.23
-2.97
56.37
105.10
140.07
160.70
168.37
165.55
154.99
139.23
120.57
101.14
83.05
68.30
58.35
53.72
53.70
56.62
60.40
63.24
64.01
62.39
58.63
53.17
46.21
37.64
27.06
14.08
-1.48
-19.22
-38.25
-57.36
-75.33
-91.33
-105.12
-117.20
-128.69
-141.26
-156.57
-175.68
-198.07
-221.08
-240.10
-249.51
-244.35
-221.91
-182.61
-129.86
-69.18
-6.96
50.74
99.02
134.53
155.78
163.07
158.35
144.63
125.47
104.30
84.09
67.13
55.01
48.41
47.06
49.80
54.92
60.75
65.99
69.98
72.38
72.86
70.77
65.15
55.12
40.44
21.91
1.37
-18.82
-36.58
-50.89
-62.25
-72.47
-84.12
-99.53
-119.64
-143.15
-166.26
-183.32
-188.28
-176.55
-146.52
-100.30
-43.34
17.13
73.84
121.16
155.88
177.22
186.13
184.49
174.44
158.11
137.74
115.67
94.45
76.47
63.53
56.31
54.22
55.71
58.82
61.88
63.82
64.12
62.42
58.17
50.59
38.96
23.12
3.80
-17.43
-38.60
-58.06
-75.05
-90.16
-105.19
-122.57
-144.32
-170.89
-200.15
-227.35
-246.08
-250.16
-235.56
-201.72
-151.63
-90.92
-26.32
35.68
89.70
132.02
160.82
176.09
179.43
173.51
161.35
145.68
128.73
112.26
97.71
86.24
78.47
74.34
73.11
73.67
74.96
76.23
76.89
76.30
73.57
67.53
57.12
41.91
22.40
0.02
-23.09
-44.80
-63.61
-79.20
-92.60
-105.99
-122.06
-142.96
-169.03
-197.91
-224.58
-242.44
-245.14
-228.71
-192.82
-140.97
-79.42
-15.60
43.68
93.31
130.36
154.02
165.15
165.80
158.61
146.44
131.87
117.08
103.73
92.99
85.49
81.13
79.19
78.53
78.10
77.30
76.17
75.06
74.08
72.63
69.30
62.29
50.21
32.83
11.36
-11.88
-34.22
-53.64
-69.38
-82.22
-94.19
-108.01
-126.11
-149.56
-176.99
-204.25
-225.08
-232.72
-222.07
-191.47
-143.43
-83.93
-20.79
38.38
87.88
124.58
147.85
158.89
159.87
153.21
141.22
125.95
109.39
93.54
80.33
71.21
66.75
66.25
68.12
70.39
71.55
70.94
68.79
65.78
62.37
58.28
52.46
43.51
30.34
12.80
-8.04
-30.13
-51.14
-69.29
-83.94
-95.82
-106.63
-118.56
-133.56
-152.75
-175.61
-199.69
-220.61
-232.87
-231.25
-212.37
-175.93
-125.00
-65.26
-3.56
53.51
100.93
135.71
156.91
165.26
162.66
151.69
135.23
116.14
97.09
80.38
67.73
60.00
57.02
57.72
60.55
64.10
67.43
70.12
71.85
72.06
69.61
63.25
52.14
36.41
17.34
-3.00
-22.43
-39.44
-53.74
-66.31
-79.10
-94.41
-113.97
-137.90
-163.94
-187.46
-202.24
-202.18
-183.39
-145.62
-92.72
-31.66
29.37
83.14
124.87
152.82
167.68
171.54
166.81
155.65
139.94
121.57
102.70
85.60
72.23
63.62
59.51
58.57
59.05
59.58
59.45
58.67
57.41
55.38
51.58
44.57
33.08
16.72
-3.67
-26.03
-47.86
-67.09
-82.87
-95.92
-108.34
-122.88
-141.86
-165.99
-193.47
-219.85
-238.91
-244.25
-231.27
-198.66
-148.95
-87.87
-22.84
38.83
91.32
131.14
157.21
170.35
172.67
166.96
156.03
142.38
127.96
114.22
102.19
92.50
85.35
80.46
77.11
74.53
72.18
69.92
67.88
66.02
63.72
59.59
51.92
39.39
21.83
0.51
-22.15
-43.48
-61.66
-76.43
-89.12
-102.07
-117.82
-138.09
-162.87
-189.84
-214.46
-230.67
-232.38
-215.35
-178.82
-126.15
-64.04
-0.71
56.40
102.31
135.14
155.45
165.13
166.28
160.64
149.74
135.16
118.71
102.43
88.20
77.38
70.38
66.65
65.01
64.17
63.15
61.58
59.63
57.56
55.22
51.75
45.73
35.69
20.86
1.69
-20.09
-42.02
-61.76
-78.00
-90.86
-101.92
-113.74
-128.97
-149.32
-174.57
-201.93
-226.35
-241.55
-241.74
-223.36
-186.35
-134.22
-73.18
-10.53
46.97
94.40
129.08
150.46
159.54
158.30
149.13
134.59
117.20
99.33
83.04
69.84
60.49
54.86
52.16
51.31
51.39
51.93
52.82
53.94
54.78
54.18
50.50
42.20
28.54
10.13
-11.12
-32.42
-51.17
-65.92
-76.85
-85.80
-95.57
-108.93
-127.46
-150.70
-175.74
-197.53
-210.01
-207.68
-187.25
-148.80
-96.04
-35.44
25.47
79.81
122.77
152.06
167.64
171.03
164.56
150.86
132.63
112.46
92.76
75.53
62.18
53.27
48.51
46.95
47.36
48.65
50.09
51.20
51.51
50.20
46.13
38.10
25.50
8.73
-10.69
-30.63
-49.15
-65.25
-79.26
-92.82
-108.24
-127.53
-151.31
-177.90
-203.03
-220.57
-224.15
-209.19
-174.66
-123.65
-62.61
0.45
58.15
105.21
139.06
159.52
167.89
166.21
156.77
141.90
123.99
105.39
88.24
74.18
64.02
57.65
54.22
52.59
51.84
51.47
51.37
51.33
50.71
48.30
42.61
32.49
17.69
-0.82
-21.16
-41.08
-58.72
-73.32
-85.47
-97.03
-110.62
-128.62
-151.94
-179.03
-205.45
-224.79
-230.27
-217.00
-183.65
-133.14
-71.75
-7.48
52.04
101.20
137.10
159.33
169.29
169.20
161.41
148.19
131.62
113.83
96.94
82.72
72.26
65.60
61.87
59.77
58.29
57.05
56.26
56.17
56.50
56.14
53.28
46.07
33.45
15.64
-5.72
-28.11
-48.94
-66.45
-80.31
-91.64
-102.83
-116.56
-134.92
-158.29
-184.59
-209.24
-226.03
-228.80
-213.21
-178.31
-126.94
-65.07
-0.29
60.05
110.25
146.87
168.90
177.26
174.21
162.66
145.80
126.57
107.52
90.64
77.35
68.33
63.39
61.47
61.02
60.56
59.26
57.16
54.88
52.98
51.22
48.38
42.66
32.48
17.40
-1.76
-23.06
-44.15
-63.11
-79.01
-92.09
-103.71
-116.01
-131.28
-150.94
-174.48
-198.67
-218.01
-225.96
-217.06
-188.86
-142.91
-84.34
-20.41
41.40
95.09
136.87
165.15
180.09
182.82
175.15
159.34
138.22
115.00
93.01
75.08
63.02
57.13
56.24
58.26
60.91
62.46
62.19
60.27
57.40
54.02
49.95
44.20
35.39
22.52
5.65
-13.93
-34.08
-52.77
-68.88
-82.60
-95.28
-108.86
-125.13
-145.21
-168.87
-194.01
-216.60
-231.18
-232.09
-215.36
-180.15
-129.39
-69.05
-6.62
51.00
98.77
134.06
156.37
166.63
166.44
157.69
142.28
122.30
100.14
78.45
59.91
46.77
40.08
39.31
42.62
47.53
51.89
54.52
55.19
54.22
51.72
47.23
39.80
28.58
13.38
-4.97
-24.73
-43.83
-60.57
-74.29
-85.68
-96.60
-109.41
-126.19
-147.86
-173.24
-198.96
-219.92
-230.46
-225.87
-203.70
-164.55
-112.08
-52.14
8.58
63.87
109.08
141.65
160.96
167.89
164.33
152.67
135.54
115.62
95.33
76.80
61.64
50.87
44.80
43.12
45.06
49.53
55.42
61.51
66.56
69.33
68.36
62.44
51.00
34.49
14.55
-6.33
-25.63
-41.72
-54.44
-65.30
-76.85
-91.81
-111.91
-136.78
-163.36
-186.20
-198.70
-194.88
-171.44
-129.00
-72.13
-8.11
54.91
109.88
152.00
179.08
191.24
190.28
179.00
160.61
138.30
114.93
92.92
74.13
59.84
50.61
46.07
45.06
46.02
47.50
48.55
48.77
47.97
45.67
40.92
32.49
19.49
1.92
-19.18
-41.89
-64.08
-84.08
-101.21
-116.02
-130.26
-146.37
-166.43
-190.84
-217.26
-240.55
-254.03
-251.65
-230.02
-189.51
-134.02
-69.67
-3.22
59.11
112.29
152.73
178.45
189.24
186.71
173.92
154.81
133.30
112.62
95.04
81.80
73.19
68.66
67.16
67.40
68.26
68.95
69.01
68.04
65.46
60.49
52.26
40.19
24.27
5.24
-15.55
-36.42
-55.87
-73.16
-88.67
-103.96
-121.26
-142.56
-168.27
-196.21
-221.55
-237.92
-239.27
-221.87
-185.51
-133.49
-71.55
-6.42
55.53
109.18
150.98
179.09
193.32
194.97
186.55
171.12
151.81
131.34
111.95
95.43
83.13
75.75
73.11
74.14
77.15
80.31
82.22
82.12
79.79
75.18
68.00
57.74
43.86
26.22
5.46
-16.98
-39.21
-59.54
-77.02
-91.74
-104.93
-118.64
-135.12
-155.98
-181.12
-208.00
-231.68
-245.92
-244.89
-225.05
-186.26
-131.84
-67.71
-0.96
61.56
114.30
153.68
178.26
188.66
187.05
176.42
159.84
140.05
119.28
99.56
82.84
70.80
64.38
63.44
66.59
71.68
76.48
79.32
79.38
76.67
71.60
64.53
55.47
44.14
30.14
13.36
-5.78
-26.33
-47.02
-66.67
-84.42
-99.91
-113.32
-125.26
-136.90
-149.95
-166.16
-186.53
-210.12
-233.47
-250.94
-256.24
-244.53
-214.00
-166.51
-106.84
-41.45
23.00
80.73
127.33
160.06
178.03
182.19
175.03
159.94
140.44
119.66
100.07
83.66
71.93
65.71
64.87
68.23
73.85
79.60
83.85
85.78
85.33
82.79
78.27
71.44
61.56
48.00
30.69
10.44
-11.02
-31.62
-49.55
-63.97
-75.24
-84.86
-95.10
-108.34
-126.29
-149.00
-174.24
-197.48
-212.66
-213.82
-196.93
-161.25
-109.64
-47.86
16.89
77.59
128.63
166.46
189.73
198.92
195.90
183.30
164.03
141.01
117.02
94.73
76.50
63.98
57.72
56.92
59.71
63.81
67.26
68.95
68.62
66.50
62.64
56.65
47.70
34.87
17.75
-3.15
-26.40
-50.01
-72.01
-91.19
-107.34
-121.38
-135.07
-150.51
-169.45
-192.38
-217.76
-241.73
-258.81
-263.25
-250.83
-220.15
-172.90
-113.33
-47.15
19.53
80.94
132.10
169.38
191.03
197.59
191.65
177.08
157.90
137.36
117.74
100.55
86.95
77.72
73.05
72.25
73.84
76.06
77.54
77.66
76.39
73.83
69.65
63.02
52.80
38.30
19.66
-1.96
-24.70
-46.59
-66.14
-82.73
-96.80
-109.88
-124.26
-142.32
-165.43
-192.70
-220.40
-242.40
-251.90
-243.54
-215.24
-168.69
-108.75
-42.00
24.70
85.28
135.03
170.89
191.68
198.17
192.80
179.03
160.40
140.06
120.39
103.19
89.72
80.68
75.93
74.55
74.99
75.71
75.69
74.59
72.51
69.59
65.50
59.30
49.80
36.00
17.74
-4.12
-27.86
-51.34
-72.74
-91.06
-106.43
-120.11
-134.21
-151.00
-172.02
-196.87
-222.55
-243.73
-254.00
-247.88
-222.60
-178.97
-121.11
-55.19
11.90
73.84
125.57
163.66
186.54
194.64
190.03
175.98
156.09
133.76
111.72
92.24
76.96
66.93
62.24
61.97
64.35
67.41
69.57
70.03
68.74
66.00
61.88
56.00
47.49
35.46
19.51
0.09
-21.48
-43.34
-63.76
-81.66
-96.99
-110.74
-124.74
-141.08
-161.35
-185.65
-211.76
-235.10
-249.70
-249.73
-231.52
-194.60
-141.96
-79.16
-12.95
50.02
104.17
145.58
172.25
184.13
182.95
171.61
153.47
131.78
109.29
88.34
70.91
58.51
51.78
50.23
52.31
56.00
59.51
61.83
62.65
61.92
59.31
53.98
44.88
31.31
13.51
-7.23
-28.84
-49.24
-67.03
-81.91
-94.84
-107.70
-122.75
-141.84
-165.50
-192.09
-217.63
-236.46
-242.64
-231.71
-202.15
-155.82
-97.55
-33.96
27.99
82.22
124.41
152.42
166.23
167.61
159.44
144.91
126.91
107.77
89.32
73.06
60.26
51.76
47.83
48.03
51.38
56.61
62.29
66.97
69.15
67.49
60.96
49.29
33.16
14.17
-5.59
-24.14
-40.25
-53.88
-66.25
-79.54
-96.05
-117.03
-141.64
-166.36
-185.48
-192.53
-182.30
-152.71
-105.77
-47.30
14.67
72.03
118.52
150.80
168.46
173.18
167.66
154.72
136.89
116.43
95.51
76.28
60.62
49.84
44.23
43.02
44.78
47.83
50.79
52.63
52.62
50.10
44.35
34.77
21.23
4.35
-14.49
-33.49
-51.07
-66.51
-80.33
-94.21
-110.45
-130.91
-155.87
-183.11
-207.86
-223.77
-224.63
-206.35
-168.56
-114.94
-52.34
11.01
67.55
112.04
142.12
158.15
162.32
157.67
147.30
133.84
119.28
105.01
91.96
80.76
71.79
65.16
60.79
58.42
57.71
58.12
58.86
58.83
56.66
50.96
40.81
26.15
7.89
-12.21
-32.14
-50.24
-65.82
-79.48
-92.93
-108.57
-128.38
-152.82
-179.73
-204.20
-219.57
-219.29
-199.25
-159.54
-104.67
-42.33
18.90
71.83
112.21
138.87
152.99
156.90
153.11
143.90
131.25
117.04
103.09
90.98
81.77
75.72
72.22
70.05
68.00
65.41
62.37
59.57
57.67
56.57
55.08
51.15
42.76
28.81
9.78
-12.33
-34.69
-54.66
-70.77
-83.10
-93.24
-103.73
-117.37
-136.02
-159.74
-185.95
-209.48
-223.69
-222.30
-201.53
-161.65
-107.03
-45.07
16.00
69.21
110.20
137.58
152.31
156.70
153.39
144.85
133.20
120.18
107.42
96.31
87.92
82.78
80.77
81.23
83.23
85.80
88.14
89.64
89.74
87.80
83.19
75.42
64.42
50.71
35.29
19.33
3.81
-10.90
-25.00
-39.11
-53.74
-69.01
-84.39
-98.94
-111.72
-122.23
-130.82
-138.74
-148.03
-160.94
-178.91
-201.46
-225.49
-245.49
-254.76
-247.51
-220.79
-175.75
-117.39
-53.24
8.75
62.02
102.58
129.18
142.89
146.22
142.31
134.17
124.29
114.45
105.81
99.07
94.62
92.49
92.34
93.54
95.38
97.39
99.35
101.22
102.82
103.49
102.11
97.35
88.37
75.28
59.19
41.96
25.49
10.94
-1.46
-12.43
-23.13
-34.53
-46.99
-60.07
-72.78
-84.10
-93.50
-101.36
-109.03
-118.50
-131.71
-149.53
-170.94
-192.50
-208.83
-213.87
-202.70
-173.29
-127.44
-70.56
-10.10
46.45
93.50
128.26
150.53
161.75
163.87
158.69
147.80
132.94
116.17
99.97
86.71
78.09
74.78
76.27
81.18
87.77
94.34
99.52
102.32
102.08
98.36
90.92
79.85
65.68
49.49
32.65
16.44
1.59
-12.00
-25.18
-39.03
-54.31
-70.98
-88.16
-104.48
-118.77
-130.58
-140.65
-150.84
-163.57
-180.79
-202.71
-226.82
-248.05
-259.85
-256.18
-233.52
-192.14
-136.03
-71.77
-6.80
52.18
100.34
135.15
156.34
165.46
165.25
158.95
149.51
139.14
129.20
120.34
112.94
107.30
103.67
102.13
102.49
104.29
106.81
109.26
110.76
110.44
107.40
100.96
90.87
77.49
61.81
45.16
28.73
13.13
-1.72
-16.47
-31.87
-48.33
-65.66
-83.17
-99.89
-115.04
-128.28
-140.00
-151.42
-164.40
-180.83
-201.49
-224.97
-247.21
-262.13
-263.43
-246.64
-210.65
-158.14
-94.66
-27.20
37.41
93.46
137.02
166.20
181.18
184.08
178.33
167.69
155.30
143.16
132.15
122.58
114.76
109.14
106.17
105.99
108.27
112.24
116.84
120.82
122.85
121.62
116.02
105.46
90.22
71.36
50.55
29.49
9.44
-9.03
-26.04
-42.15
-57.95
-73.84
-89.90
-105.77
-120.88
-134.63
-146.70
-157.42
-168.03
-180.38
-196.22
-215.99
-237.83
-257.32
-268.45
-265.44
-244.61
-205.63
-151.56
-87.94
-21.37
41.84
96.52
139.03
167.57
182.14
184.40
177.25
164.08
148.04
131.57
116.38
103.62
94.14
88.50
86.80
88.64
93.07
98.71
104.06
107.61
108.13
104.89
97.67
86.90
73.43
58.29
42.29
25.90
9.24
-7.84
-25.38
-43.29
-61.24
-78.77
-95.38
-110.68
-124.42
-136.76
-148.42
-160.81
-175.63
-193.93
-215.07
-235.97
-251.50
-255.79
-244.22
-214.83
-168.97
-110.70
-45.75
19.66
79.67
129.46
165.62
186.75
193.60
188.82
176.14
159.28
141.12
123.56
107.86
95.11
86.44
82.70
84.07
89.67
97.68
105.78
111.82
114.23
112.37
106.44
97.23
85.70
72.72
58.80
44.09
28.50
11.90
-5.61
-23.64
-41.52
-58.43
-73.64
-86.76
-97.99
-108.20
-118.98
-132.32
-149.85
-171.71
-195.64
-216.86
-229.00
-225.98
-203.98
-162.86
-106.25
-40.67
26.23
87.33
137.26
172.99
193.73
200.62
196.03
182.93
164.28
142.72
120.45
99.48
81.64
68.41
60.64
58.12
59.63
63.31
67.19
69.81
70.44
68.96
65.44
59.85
51.79
40.75
26.39
8.90
-10.89
-31.69
-52.12
-71.12
-88.17
-103.36
-117.26
-130.81
-145.34
-162.37
-183.07
-207.30
-232.83
-255.11
-268.19
-266.49
-246.59
-208.46
-155.25
-92.30
-25.65
38.93
96.49
143.09
176.05
194.35
198.89
192.34
178.30
160.33
141.17
122.66
106.08
92.51
82.88
77.59
76.25
77.60
79.99
81.96
82.65
81.80
79.39
75.11
68.28
58.01
43.67
25.41
4.26
-18.11
-39.91
-59.91
-77.65
-93.50
-108.53
-124.31
-142.55
-164.51
-189.96
-216.48
-239.27
-252.15
-249.40
-227.64
-187.01
-131.19
-66.24
0.85
63.59
116.79
156.98
182.51
193.56
192.01
180.91
163.71
143.60
123.08
103.95
87.59
74.98
66.58
62.18
60.89
61.39
62.45
63.26
63.52
63.10
61.61
58.11
51.32
40.03
23.85
3.57
-18.96
-41.39
-61.73
-79.08
-93.83
-107.58
-122.63
-141.21
-164.41
-191.27
-218.23
-239.55
-248.81
-240.81
-213.27
-167.72
-108.89
-43.45
21.55
79.96
127.18
160.42
178.75
183.00
175.50
159.54
138.67
116.11
94.52
75.85
61.49
52.09
47.47
46.61
48.07
50.38
52.49
53.83
54.05
52.59
48.56
40.96
29.08
12.97
-6.41
-27.41
-48.17
-67.23
-83.96
-98.71
-112.86
-128.43
-147.33
-170.50
-196.74
-222.37
-241.78
-248.91
-239.18
-210.95
-165.91
-108.59
-45.02
18.43
75.97
122.92
156.12
174.24
177.97
169.87
153.69
133.36
112.22
92.60
75.95
63.09
54.47
50.13
49.69
52.24
56.54
61.29
65.16
67.03
65.86
60.85
51.56
38.11
21.30
2.53
-16.57
-34.59
-50.89
-65.96
-81.33
-99.08
-120.76
-146.18
-172.58
-194.87
-206.81
-202.84
-179.96
-138.79
-83.55
-20.94
41.43
96.77
140.22
169.41
184.27
186.48
178.69
163.82
144.61
123.48
102.69
84.28
69.98
60.82
56.73
56.59
58.66
61.21
63.03
63.44
62.04
58.19
50.98
39.43
23.13
2.67
-20.29
-43.50
-64.92
-83.51
-99.73
-115.47
-133.37
-155.64
-182.60
-211.73
-237.74
-253.83
-253.84
-234.33
-195.67
-141.84
-79.12
-14.53
45.48
95.83
133.11
155.79
164.24
160.69
148.56
131.70
113.47
96.30
81.72
70.69
63.72
60.84
61.53
64.66
68.79
72.53
74.78
74.69
71.61
64.88
54.06
39.16
20.75
0.16
-20.96
-41.00
-59.01
-75.08
-90.49
-107.37
-127.80
-152.54
-179.86
-205.36
-222.74
-225.73
-210.16
-175.37
-124.45
-63.35
0.74
60.95
111.86
150.05
174.20
184.94
184.31
175.24
160.85
144.03
127.14
112.00
99.99
91.86
87.57
86.26
86.48
86.73
86.02
84.05
81.01
77.10
72.03
64.90
54.51
39.95
21.21
-0.63
-23.62
-45.60
-64.88
-80.88
-94.37
-107.28
-122.13
-141.11
-164.84
-191.49
-216.56
-233.74
-236.70
-221.04
-185.83
-134.08
-71.91
-6.97
53.41
103.62
140.60
163.71
174.24
174.61
167.53
155.46
140.45
124.30
108.79
95.76
86.85
82.84
83.31
86.67
90.67
93.25
93.15
90.15
84.83
77.95
69.89
60.42
48.81
34.28
16.54
-3.89
-25.64
-46.93
-66.07
-82.09
-94.99
-105.74
-115.98
-127.64
-142.52
-161.66
-184.69
-209.25
-230.93
-243.92
-242.60
-223.16
-185.07
-131.46
-68.45
-3.63
55.72
104.11
138.60
158.90
166.78
165.23
157.56
146.63
134.50
122.48
111.44
102.13
95.26
91.30
90.28
91.65
94.39
97.32
99.35
99.66
97.66
92.96
85.27
74.57
61.12
45.55
28.71
11.42
-5.75
-22.58
-39.12
-55.45
-71.41
-86.54
-100.26
-112.13
-122.25
-131.50
-141.52
-154.34
-171.46
-192.80
-215.90
-235.85
-246.40
-241.65
-218.15
-176.05
-119.43
-55.17
8.82
65.53
110.17
140.69
157.43
162.36
158.25
148.07
134.60
120.33
107.38
97.42
91.37
89.31
90.41
93.29
96.52
99.16
100.97
102.14
102.86
102.87
101.22
96.63
88.01
75.12
58.83
41.01
23.76
8.67
-3.86
-14.68
-25.36
-37.36
-51.29
-66.62
-81.89
-95.42
-106.01
-113.53
-119.01
-124.41
-132.13
-144.23
-161.71
-183.57
-206.41
-224.73
-232.03
-222.70
-193.91
-146.98
-87.33
-23.06
37.37
87.35
123.55
146.00
156.91
159.22
155.35
146.80
134.51
119.49
103.37
88.32
76.61
69.81
68.32
71.25
76.85
83.08
88.21
91.09
91.25
88.66
83.30
75.13
64.06
50.16
33.76
15.63
-3.19
-21.75
-39.37
-55.78
-70.96
-84.97
-97.92
-109.98
-121.70
-134.14
-148.79
-166.84
-188.26
-210.82
-230.02
-239.85
-234.57
-210.61
-168.15
-111.38
-47.37
15.76
70.95
113.64
142.26
157.75
162.58
159.69
151.73
140.77
128.24
115.29
103.01
92.52
84.84
80.49
79.38
80.71
83.25
85.65
86.79
86.05
83.20
78.33
71.53
62.82
52.06
39.06
23.83
6.67
-11.79
-30.68
-49.13
-66.43
-82.13
-96.14
-108.70
-120.44
-132.50
-146.40
-163.62
-184.64
-207.98
-229.70
-243.94
-244.43
-226.63
-189.44
-135.93
-72.61
-7.60
51.55
99.44
133.53
153.86
162.24
161.35
153.98
142.63
129.30
115.59
102.75
91.77
83.45
78.23
76.10
76.59
78.78
81.50
83.51
83.78
81.61
76.75
69.29
59.54
47.95
34.90
20.65
5.32
-10.97
-28.04
-45.65
-63.35
-80.58
-96.75
-111.40
-124.45
-136.42
-148.61
-162.82
-180.63
-202.22
-225.44
-245.65
-256.73
-252.95
-230.90
-190.69
-136.05
-73.21
-9.31
49.16
97.39
132.69
154.41
163.61
162.41
153.46
139.47
122.94
106.09
90.96
79.30
72.22
69.90
71.46
75.24
79.33
82.21
83.14
82.14
79.74
76.35
72.00
66.11
57.66
45.75
30.11
11.44
-8.67
-28.32
-46.01
-61.07
-73.90
-85.70
-98.16
-112.97
-131.24
-152.80
-175.53
-195.22
-206.22
-202.96
-181.81
-142.67
-89.31
-28.43
32.25
86.00
128.43
157.86
174.66
180.36
176.85
165.93
149.41
129.33
108.08
88.31
72.46
62.11
57.54
57.73
60.71
64.40
67.14
68.08
67.13
64.48
60.17
53.81
44.73
32.24
16.13
-3.08
-24.12
-45.39
-65.34
-83.05
-98.40
-112.07
-125.48
-140.40
-158.41
-180.25
-204.94
-229.27
-248.24
-256.15
-248.30
-222.43
-179.45
-123.14
-59.16
6.10
66.62
117.44
155.22
178.54
187.97
185.77
175.19
159.58
141.76
123.89
107.60
94.14
84.52
79.09
77.36
78.04
79.55
80.47
80.01
77.90
74.14
68.64
61.03
50.74
37.30
20.69
1.52
-19.07
-39.56
-58.61
-75.44
-90.21
-104.11
-119.11
-137.27
-159.95
-186.55
-214.00
-237.06
-249.47
-245.82
-223.24
-182.39
-127.37
-64.51
-0.81
57.50
105.90
141.87
164.71
175.22
175.29
167.40
154.19
138.13
121.21
105.07
91.17
80.80
74.82
73.38
75.66
79.94
84.19
86.67
86.46
83.55
78.29
70.94
61.36
49.04
33.63
15.41
-4.61
-24.95
-44.14
-61.25
-76.17
-89.42
-102.09
-115.60
-131.48
-150.98
-174.38
-200.07
-224.26
-241.48
-245.88
-233.11
-201.72
-153.69
-94.05
-29.52
32.99
87.66
130.56
159.95
176.10
180.79
176.62
166.33
152.31
136.51
120.56
106.07
94.55
87.17
84.30
85.43
89.16
93.76
97.58
99.38
98.46
94.66
88.07
78.95
67.58
54.25
39.28
23.01
5.81
-11.93
-29.88
-47.74
-65.20
-81.82
-97.20
-111.01
-123.33
-134.99
-147.54
-162.87
-182.13
-204.59
-226.93
-243.61
-248.34
-236.06
-204.71
-155.99
-94.96
-28.69
35.37
90.95
133.78
162.04
176.18
178.33
171.55
158.94
143.07
125.77
108.51
92.81
80.37
72.68
70.46
73.18
79.05
85.68
90.80
92.90
91.43
86.64
79.10
69.39
57.84
44.58
29.64
13.05
-4.93
-23.83
-42.98
-61.60
-79.05
-95.00
-109.50
-123.07
-136.67
-151.55
-168.88
-188.94
-210.40
-229.85
-242.23
-242.04
-225.16
-190.30
-139.64
-78.40
-13.60
47.68
99.61
138.51
163.09
174.16
173.95
165.37
151.21
133.82
115.16
97.07
81.53
70.41
64.93
65.11
69.57
75.94
81.76
85.23
85.60
83.14
78.56
72.42
64.80
55.34
43.55
29.18
12.48
-5.75
-24.43
-42.49
-59.11
-73.96
-87.21
-99.51
-112.02
-126.14
-143.20
-163.65
-186.33
-207.98
-223.65
-227.78
-215.89
-186.08
-139.82
-81.77
-18.56
42.68
95.89
137.01
164.24
177.84
179.37
171.21
155.93
136.17
114.65
94.15
77.29
66.12
61.52
62.74
67.66
73.62
78.30
80.56
80.45
78.74
75.97
71.90
65.40
55.12
40.25
21.22
-0.33
-22.04
-41.77
-58.30
-71.73
-83.37
-95.36
-109.99
-129.07
-152.97
-179.87
-205.61
-224.25
-229.56
-216.89
-184.77
-135.51
-74.75
-9.87
51.70
104.08
143.73
169.45
181.94
183.07
175.28
161.07
142.90
123.13
104.04
87.69
75.68
68.66
66.20
66.88
68.86
70.56
71.03
70.06
67.84
64.37
59.12
51.07
39.10
22.64
2.13
-20.92
-44.36
-66.05
-84.62
-99.90
-112.98
-125.96
-141.36
-161.19
-185.88
-213.39
-239.03
-256.44
-259.32
-243.47
-208.10
-156.22
-93.71
-27.77
34.62
87.86
128.34
154.58
167.11
168.01
160.27
147.03
131.02
114.34
98.60
85.12
75.00
68.81
66.28
66.35
67.49
68.29
67.98
66.44
63.89
60.30
55.06
47.02
35.08
18.75
-1.36
-23.56
-45.49
-64.99
-80.86
-93.37
-104.27
-116.30
-132.24
-153.67
-179.94
-207.55
-230.73
-242.90
-238.59
-215.16
-173.57
-118.07
-54.98
8.74
66.86
114.70
149.46
170.36
178.35
175.70
165.51
150.88
134.47
118.27
103.72
91.80
83.19
77.97
75.61
74.98
74.73
73.88
72.03
69.39
66.35
62.84
58.02
50.49
38.86
22.57
2.32
-20.05
-42.19
-62.15
-78.99
-93.10
-106.01
-119.93
-137.06
-158.64
-184.03
-210.10
-231.50
-241.96
-236.09
-211.22
-168.34
-111.95
-48.76
13.98
69.99
114.87
146.31
163.95
168.94
163.48
150.41
132.80
113.61
95.44
80.38
69.75
63.94
62.33
63.54
65.91
68.04
69.23
69.35
68.50
66.59
62.96
56.48
46.02
31.10
12.31
-8.63
-29.39
-47.85
-62.93
-75.04
-85.94
-98.21
-114.21
-135.08
-159.77
-184.74
-204.44
-212.64
-204.24
-176.94
-132.21
-75.05
-12.71
47.23
98.57
137.55
162.86
175.16
176.18
168.04
153.02
133.54
112.28
92.04
75.36
64.03
58.54
57.95
60.33
63.55
65.99
66.98
66.58
65.06
62.20
57.09
48.43
35.30
17.73
-3.03
-24.94
-45.84
-64.30
-80.06
-94.05
-108.19
-124.70
-145.43
-170.81
-198.90
-225.22
-243.47
-247.25
-232.04
-196.91
-144.90
-82.27
-16.68
44.59
96.10
134.84
160.19
173.27
176.18
171.29
160.81
146.59
130.43
114.21
99.86
89.06
82.60
80.09
80.20
81.23
81.76
81.09
79.12
76.01
71.71
65.67
57.07
45.06
29.26
10.00
-11.52
-33.58
-54.35
-72.47
-87.47
-100.01
-111.72
-124.87
-141.67
-163.41
-189.43
-216.61
-239.56
-251.80
-247.67
-224.13
-181.85
-125.12
-60.69
3.91
62.03
108.96
142.42
162.36
170.47
169.40
161.93
150.49
136.91
122.68
109.14
97.70
89.51
85.05
83.87
84.68
85.97
86.48
85.61
83.38
80.07
75.72
69.94
61.94
50.82
35.98
17.56
-3.48
-25.47
-46.49
-64.99
-80.30
-92.79
-103.84
-115.45
-129.75
-148.37
-171.57
-197.52
-222.16
-239.66
-243.88
-230.20
-197.08
-146.76
-84.85
-18.93
43.40
95.97
135.15
159.89
171.38
172.18
165.30
153.52
139.04
123.53
108.41
95.16
85.22
79.55
78.18
80.05
83.34
86.14
87.12
85.83
82.61
78.02
72.33
65.16
55.65
42.89
26.47
6.84
-14.71
-36.31
-56.21
-73.25
-87.24
-98.99
-110.09
-122.49
-138.07
-157.91
-181.57
-206.54
-228.23
-240.69
-238.24
-217.18
-177.28
-122.14
-58.44
5.90
63.60
109.59
141.65
160.09
166.85
164.56
155.75
142.49
126.52
109.54
93.38
79.88
70.53
65.89
65.35
67.33
69.94
71.63
71.67
70.11
67.37
63.61
58.36
50.66
39.48
24.28
5.42
-15.76
-37.38
-57.54
-74.91
-89.07
-100.60
-110.88
-121.74
-135.08
-152.44
-174.28
-199.24
-223.82
-242.75
-250.09
-240.93
-213.06
-167.81
-109.81
-45.93
16.49
71.05
113.46
141.76
156.21
158.68
151.97
139.18
123.14
106.29
90.55
77.44
68.00
62.62
60.81
61.49
63.38
65.44
67.26
68.84
70.11
70.47
68.61
62.94
52.26
36.44
16.68
-4.77
-25.35
-43.09
-57.21
-68.36
-78.52
-90.36
-106.26
-127.16
-151.58
-175.26
-192.01
-195.34
-180.61
-146.80
-97.09
-37.99
22.50
77.03
120.53
150.71
167.75
173.23
169.24
157.82
140.97
120.83
100.02
81.32
67.17
58.89
56.19
57.34
59.98
62.08
62.71
62.02
60.60
58.59
55.26
49.06
38.41
22.68
2.71
-19.39
-40.92
-59.62
-74.57
-86.46
-97.29
-109.77
-126.34
-148.19
-174.44
-201.75
-224.52
-236.22
-231.16
-206.55
-163.70
-107.92
-47.07
10.77
59.45
95.92
119.97
133.24
137.89
135.83
128.61
117.77
105.13
92.69
82.31
75.08
71.10
69.45
68.80
67.94
66.37
64.26
62.24
60.73
59.42
57.09
52.00
42.61
28.47
10.53
-9.06
-27.82
-43.91
-56.80
-67.41
-77.67
-89.87
-105.85
-126.39
-150.54
-175.23
-195.47
-205.27
-199.38
-175.16
-133.95
-80.98
-23.94
29.33
73.01
104.49
124.14
134.19
137.17
134.98
128.60
118.68
106.09
92.43
79.70
69.73
63.45
60.56
59.81
59.80
59.58
59.01
58.46
58.19
57.79
56.01
51.18
41.90
27.73
9.56
-10.61
-30.18
-46.90
-59.63
-68.73
-75.99
-83.94
-95.07
-111.04
-131.96
-156.02
-179.47
-197.14
-203.42
-193.97
-167.22
-125.30
-73.67
-19.65
29.78
69.72
98.13
115.39
123.15
123.32
117.64
107.68
95.16
82.01
70.04
60.53
53.98
50.10
48.13
47.28
47.02
47.19
47.85
48.99
50.26
50.76
49.21
44.30
35.22
22.14
6.29
-10.34
-25.69
-38.37
-48.07
-55.70
-63.17
-72.73
-86.19
-104.11
-125.08
-145.48
-160.04
-163.30
-151.38
-123.48
-82.38
-33.71
15.76
60.00
95.07
119.35
133.07
137.36
133.62
123.31
108.18
90.43
72.77
57.80
47.34
41.85
40.35
40.96
41.84
41.91
41.13
40.05
39.11
37.94
35.41
29.99
20.56
7.02
-9.62
-27.58
-44.95
-60.35
-73.37
-84.67
-95.81
-108.81
-125.32
-145.82
-168.82
-190.58
-205.70
-208.52
-194.97
-164.21
-119.20
-65.95
-11.75
36.88
75.81
103.62
120.93
129.36
130.58
125.95
116.83
104.82
91.91
80.16
71.12
65.41
62.60
61.55
60.98
60.05
58.59
56.95
55.54
54.26
52.27
48.05
40.09
27.53
10.79
-8.42
-27.69
-44.81
-58.58
-69.23
-78.34
-88.23
-101.28
-119.02
-141.46
-166.44
-189.62
-205.11
-207.03
-191.35
-157.57
-109.31
-53.31
2.52
51.43
89.38
115.41
130.80
137.82
138.64
134.74
127.17
116.84
105.08
93.53
83.86
77.19
73.73
72.67
72.56
72.01
70.34
67.76
65.02
62.83
61.07
58.63
53.75
44.76
30.93
12.91
-7.35
-27.24
-44.44
-57.77
-67.58
-75.60
-84.39
-96.43
-113.35
-135.28
-160.38
-184.87
-203.47
-210.53
-201.54
-174.67
-131.68
-77.79
-20.28
33.53
78.13
110.89
131.85
142.77
145.82
142.94
135.51
124.74
112.01
99.05
87.68
79.36
74.78
73.53
74.38
75.70
76.15
75.12
72.79
69.77
66.51
62.76
57.58
49.64
37.95
22.35
3.84
-15.77
-34.45
-50.55
-63.40
-73.43
-82.02
-91.03
-102.39
-117.57
-136.99
-159.51
-182.03
-199.74
-206.97
-198.88
-173.19
-131.35
-78.49
-22.02
30.55
73.65
104.77
124.11
133.53
135.23
130.99
122.19
110.25
96.90
84.19
73.98
67.42
64.52
64.31
65.23
65.81
65.17
63.23
60.60
58.00
55.75
53.30
49.35
42.25
30.86
15.14
-3.59
-23.15
-41.25
-56.34
-68.06
-77.27
-85.59
-94.91
-107.00
-122.93
-142.62
-164.26
-184.13
-197.01
-197.60
-182.36
-150.94
-106.73
-55.83
-5.25
39.19
74.11
98.58
113.37
119.87
119.41
113.12
102.29
88.68
74.46
61.87
52.62
47.42
45.91
46.84
48.67
50.16
50.79
50.75
50.57
50.37
49.53
46.69
40.36
29.63
14.86
-2.34
-19.56
-34.62
-46.34
-54.96
-61.93
-69.25
-78.92
-92.28
-109.63
-129.89
-150.28
-166.56
-173.72
-167.40
-145.43
-108.94
-62.29
-12.07
34.95
73.59
101.34
118.21
125.75
125.92
120.37
110.39
97.21
82.38
67.77
55.26
46.23
41.07
39.19
39.42
40.54
41.78
42.86
43.68
43.85
42.44
38.18
30.01
17.72
2.17
-14.90
-31.55
-46.40
-59.18
-70.68
-82.57
-96.80
-114.76
-136.55
-160.19
-181.47
-194.67
-194.17
-176.45
-141.68
-93.94
-40.08
12.42
57.60
92.17
115.50
128.82
133.96
132.60
126.10
115.70
102.81
89.07
76.15
65.39
57.48
52.35
49.43
48.00
47.56
47.89
48.84
49.93
50.06
47.70
41.29
29.91
13.80
-5.65
-26.24
-45.62
-62.10
-75.18
-85.78
-96.09
-108.85
-126.38
-149.30
-175.60
-200.55
-217.66
-220.59
-205.10
-170.68
-120.82
-62.02
-1.92
52.58
96.77
128.48
147.77
156.08
155.49
148.22
136.47
122.41
108.13
95.50
85.87
79.73
76.64
75.38
74.53
73.03
70.59
67.58
64.66
62.06
59.20
54.65
46.76
34.39
17.52
-2.55
-23.66
-43.60
-60.87
-75.15
-87.32
-99.15
-112.80
-130.11
-151.73
-176.33
-200.20
-217.76
-222.98
-211.16
-180.63
-133.56
-75.35
-13.19
45.71
95.72
133.46
157.82
169.48
170.25
162.51
148.84
131.86
114.04
97.78
85.02
76.87
73.28
73.02
74.08
74.55
73.37
70.56
66.96
63.41
60.00
55.89
49.57
39.59
25.25
7.09
-13.38
-34.06
-53.11
-69.51
-83.49
-96.44
-110.49
-127.68
-149.02
-173.63
-198.27
-217.78
-226.32
-218.95
-193.28
-150.46
-95.06
-33.92
25.60
77.35
117.52
144.72
159.48
163.35
158.22
146.15
129.33
110.23
91.56
75.75
64.41
58.01
55.71
55.92
56.93
57.63
57.60
56.98
55.92
54.11
50.59
44.02
33.26
18.07
-0.65
-21.03
-40.83
-58.23
-72.55
-84.35
-95.33
-107.75
-123.75
-144.44
-169.05
-194.51
-215.67
-226.49
-221.64
-198.28
-157.09
-102.21
-40.22
21.53
76.51
120.14
150.10
166.25
170.01
163.83
150.58
133.17
114.29
96.19
80.65
68.80
61.13
57.39
56.82
58.40
61.16
64.25
66.89
68.23
67.18
62.61
53.71
40.37
23.39
4.42
-14.58
-31.85
-46.47
-58.78
-70.33
-83.49
-100.51
-122.39
-147.72
-172.44
-190.46
-195.22
-181.87
-149.00
-99.34
-39.24
23.17
80.07
125.64
156.96
173.81
177.83
171.59
157.80
139.03
117.77
96.39
77.14
61.76
51.15
45.21
42.89
42.83
43.77
44.94
45.92
46.25
45.18
41.54
34.08
22.04
5.58
-14.13
-35.19
-55.60
-73.94
-89.86
-104.31
-119.25
-136.99
-158.96
-184.53
-210.38
-230.84
-239.35
-230.45
-201.74
-154.73
-94.61
-28.75
35.03
90.15
132.27
159.60
172.67
173.66
165.67
151.87
135.08
117.47
100.61
85.66
73.42
64.31
58.25
54.84
53.48
53.59
54.67
56.01
56.56
54.89
49.51
39.42
24.55
5.90
-14.76
-35.44
-54.56
-71.47
-86.68
-101.78
-119.00
-140.09
-165.08
-191.36
-213.67
-225.28
-220.13
-194.97
-150.71
-92.40
-27.69
35.20
89.41
130.68
157.46
170.43
171.70
164.00
150.12
132.67
113.98
95.98
80.26
67.88
59.25
54.11
51.80
51.44
52.22
53.38
54.10
53.39
50.13
43.31
32.44
17.80
0.41
-18.16
-36.29
-52.80
-67.38
-80.82
-94.88
-111.82
-133.34
-159.50
-187.76
-213.04
-228.72
-228.54
-208.68
-169.11
-113.88
-50.16
13.69
70.14
114.08
143.35
158.54
161.86
156.17
144.13
128.02
109.83
91.45
74.60
60.70
50.53
44.05
40.57
39.23
39.30
40.31
41.89
43.40
43.76
41.53
35.16
23.68
7.15
-13.07
-34.73
-55.30
-73.02
-87.56
-100.26
-113.70
-130.61
-152.63
-179.35
-207.77
-232.68
-247.85
-247.64
-228.75
-191.44
-139.76
-80.59
-21.88
29.44
68.98
95.26
109.33
113.65
111.09
104.32
95.65
87.00
80.01
75.91
75.34
78.19
83.69
90.64
97.88
104.58
110.27
114.56
116.91
116.39
111.71
101.79
86.25
65.85
42.36
17.95
-5.48
-27.05
-47.04
-66.75
-87.83
-111.38
-137.05
-162.42
-183.07
-193.47
-188.48
-165.36
-124.93
-71.81
-13.14
43.25
91.03
126.45
148.53
158.30
157.74
148.96
134.00
114.88
93.90
73.62
56.54
44.52
38.24
37.07
39.42
43.39
47.42
50.56
52.29
52.15
49.35
42.91
32.03
16.72
-2.01
-22.24
-41.81
-59.06
-73.50
-86.06
-98.83
-114.45
-134.84
-160.00
-187.13
-210.79
-224.14
-220.99
-198.00
-155.94
-99.62
-36.52
25.27
79.02
120.51
148.25
162.94
166.62
161.90
151.42
137.62
122.68
108.45
96.38
87.33
81.42
77.96
75.85
74.03
71.92
69.64
67.61
66.09
64.58
61.72
55.69
44.97
29.09
8.98
-13.18
-34.74
-53.51
-68.58
-80.64
-91.79
-104.76
-121.92
-144.11
-169.75
-194.73
-213.02
-218.24
-205.69
-174.03
-125.98
-67.77
-7.38
47.66
92.05
123.51
142.50
151.02
151.54
146.14
136.44
123.81
109.80
96.30
85.21
77.92
74.78
74.94
76.64
77.95
77.53
75.08
71.26
67.09
63.18
59.23
53.93
45.60
32.98
16.00
-4.07
-25.02
-44.53
-61.02
-74.11
-84.68
-94.46
-105.57
-119.91
-138.54
-160.94
-184.50
-204.51
-215.05
-210.63
-188.10
-148.08
-95.12
-36.46
20.03
67.95
103.72
126.71
138.40
141.21
137.46
129.01
117.30
103.78
90.07
77.97
69.06
64.26
63.47
65.59
68.91
71.61
72.29
70.30
65.85
59.72
52.79
45.62
38.04
29.29
18.34
4.53
-11.93
-29.88
-47.70
-63.92
-77.74
-89.31
-99.51
-109.56
-120.73
-134.20
-150.68
-169.91
-190.03
-207.21
-216.27
-212.03
-191.21
-153.85
-103.75
-47.37
7.98
56.18
93.55
119.01
133.41
138.54
136.18
127.91
115.22
99.94
84.23
70.50
60.76
56.03
56.00
59.17
63.47
67.01
68.60
68.05
65.88
62.85
59.40
55.33
49.75
41.50
29.76
14.63
-2.71
-20.35
-36.46
-49.95
-60.92
-70.37
-79.82
-90.70
-104.14
-120.64
-139.71
-159.42
-176.12
-184.91
-181.02
-161.53
-126.75
-80.48
-28.97
21.12
64.45
98.00
120.98
133.99
138.12
134.49
124.19
108.72
90.25
71.60
55.64
44.57
39.23
38.87
41.58
45.19
48.09
49.74
50.29
50.01
48.67
45.34
38.75
28.02
13.17
-4.70
-23.76
-42.05
-58.13
-71.50
-82.91
-93.96
-106.78
-123.23
-144.17
-168.65
-193.58
-214.00
-224.08
-218.70
-195.20
-154.48
-101.19
-42.43
14.21
62.70
99.82
125.15
140.06
146.47
145.94
139.55
128.34
113.93
98.53
84.60
74.15
68.06
65.83
65.99
66.75
66.76
65.53
63.39
61.02
58.69
55.76
50.78
41.97
28.21
9.64
-12.07
-34.38
-54.73
-71.50
-84.54
-95.13
-105.50
-118.14
-135.10
-157.06
-182.72
-208.57
-229.25
-238.85
-232.46
-207.80
-166.03
-111.60
-51.09
8.30
60.40
101.17
129.07
144.78
150.42
148.61
141.72
131.61
119.76
107.59
96.52
87.80
82.06
79.00
77.63
76.72
75.51
73.91
72.30
70.99
69.62
67.01
61.50
51.51
36.32
16.47
-6.23
-29.19
-49.88
-66.69
-79.51
-89.86
-100.33
-113.73
-131.83
-154.58
-179.48
-201.95
-216.32
-217.26
-201.25
-167.73
-119.45
-61.86
-1.87
53.77
99.83
133.31
153.51
161.63
159.99
151.39
138.64
124.25
110.38
98.70
90.33
85.65
84.20
84.82
86.00
86.51
85.77
83.89
81.40
78.56
74.90
69.22
60.03
46.39
28.52
7.87
-13.26
-32.63
-48.89
-62.01
-73.24
-84.76
-98.89
-117.19
-139.56
-163.58
-184.48
-196.22
-193.18
-172.22
-134.09
-83.47
-27.63
25.80
70.92
104.68
126.85
138.96
143.08
140.91
133.66
122.51
108.98
95.12
83.21
75.02
71.26
71.28
73.42
75.72
76.76
76.09
74.16
71.79
69.33
66.32
61.42
53.06
40.27
23.31
3.73
-16.06
-33.66
-47.75
-58.41
-67.09
-76.03
-87.43
-102.77
-122.19
-144.08
-165.05
-180.34
-184.80
-174.54
-148.33
-108.49
-60.37
-10.85
33.73
69.28
94.37
109.80
117.27
118.46
114.51
106.34
95.09
82.41
70.35
60.88
55.26
53.66
55.16
58.15
60.91
62.24
61.78
59.93
57.34
54.42
50.85
45.66
37.69
26.28
11.77
-4.43
-20.36
-34.25
-45.22
-53.58
-60.66
-68.23
-78.01
-91.15
-107.88
-127.13
-146.42
-161.86
-168.93
-163.71
-144.31
-111.78
-70.17
-25.40
16.52
51.11
76.29
92.17
100.18
101.98
98.82
91.58
81.16
68.87
56.55
46.20
39.40
36.74
37.66
40.75
44.32
47.02
48.25
48.10
47.03
45.32
42.77
38.65
31.97
22.06
9.00
-6.20
-21.83
-35.99
-47.32
-55.46
-61.22
-66.19
-72.31
-81.24
-93.92
-110.13
-128.23
-145.01
-156.22
-157.50
-145.80
-120.57
-84.31
-42.00
0.33
37.35
65.73
84.47
94.41
97.15
94.30
87.07
76.57
64.17
51.67
41.00
33.75
30.53
30.77
33.00
35.46
36.82
36.58
35.10
33.09
31.05
28.81
25.52
19.95
11.11
-1.21
-16.28
-32.51
-48.04
-61.35
-71.87
-80.14
-87.66
-96.49
-108.49
-124.58
-144.13
-164.58
-181.65
-190.23
-185.97
-166.68
-133.42
-90.35
-43.59
0.67
37.77
65.48
83.82
94.23
98.53
98.27
94.61
88.51
81.04
73.40
66.80
62.15
59.76
59.25
59.69
59.98
59.33
57.53
54.99
52.37
50.04
47.72
44.32
38.38
28.70
14.96
-2.02
-20.48
-38.29
-53.76
-66.07
-75.59
-83.62
-92.03
-102.79
-117.36
-136.04
-157.47
-178.34
-193.76
-198.39
-188.19
-161.89
-121.84
-73.51
-23.80
20.97
56.70
82.05
97.95
106.37
109.32
108.30
104.30
98.23
91.19
84.46
79.32
76.57
76.25
77.61
79.32
80.02
78.85
75.74
71.36
66.70
62.42
58.36
53.54
46.52
36.06
21.78
4.40
-14.44
-32.79
-49.03
-62.50
-73.53
-83.34
-93.63
-106.10
-122.00
-141.55
-163.46
-184.69
-200.70
-206.39
-197.58
-172.54
-132.90
-83.47
-30.90
18.16
58.83
88.82
108.29
118.90
122.82
121.97
117.80
111.41
103.79
96.02
89.12
83.99
81.10
80.45
81.51
83.41
85.08
85.58
84.35
81.25
76.50
70.41
63.16
54.69
44.68
32.79
18.93
3.35
-13.25
-29.90
-45.61
-59.63
-71.70
-82.08
-91.63
-101.62
-113.58
-128.82
-147.81
-169.49
-190.83
-207.04
-212.64
-203.01
-176.11
-133.53
-80.26
-23.43
29.74
73.78
105.98
126.30
136.45
138.74
135.27
127.67
117.32
105.67
94.48
85.49
80.09
78.75
80.84
84.84
88.91
91.53
91.97
90.35
87.40
83.78
79.60
74.17
66.28
54.74
39.10
20.06
-0.69
-20.98
-38.90
-53.49
-64.88
-74.23
-83.32
-94.15
-108.40
-126.84
-148.62
-170.91
-188.93
-196.99
-190.11
-165.83
-125.23
-72.96
-15.89
38.77
85.28
120.38
143.28
154.91
157.07
151.67
140.55
125.48
108.50
91.84
77.77
68.06
63.51
63.60
66.70
70.61
73.29
73.63
71.59
67.89
63.40
58.36
52.18
43.63
31.53
15.50
-3.69
-24.30
-44.30
-62.06
-77.01
-89.60
-101.07
-113.03
-127.09
-144.48
-165.47
-188.80
-211.23
-227.80
-232.91
-222.01
-193.20
-148.10
-91.68
-30.85
27.31
77.15
115.31
140.82
154.58
158.50
154.91
146.10
134.19
121.17
108.87
98.90
92.25
89.06
88.49
89.04
89.09
87.62
84.49
80.35
76.08
72.06
67.78
61.88
52.70
39.11
21.14
0.11
-21.76
-42.17
-59.58
-73.65
-85.36
-96.56
-109.49
-126.07
-147.15
-171.75
-196.67
-216.72
-225.84
-218.87
-193.33
-150.52
-95.36
-35.00
23.21
73.45
112.38
139.06
154.28
159.56
156.70
147.49
133.93
118.22
102.76
89.70
80.52
75.63
74.26
74.83
75.67
75.59
74.25
71.96
69.13
65.74
61.03
53.74
42.72
27.61
9.18
-10.86
-30.40
-47.68
-62.01
-73.97
-85.23
-98.05
-114.53
-135.85
-161.31
-188.00
-210.91
-223.94
-221.61
-200.85
-162.29
-110.30
-51.90
5.31
55.06
93.61
119.96
135.01
140.64
138.82
131.38
120.11
106.89
93.66
82.14
73.49
68.00
65.08
63.66
62.68
61.53
60.19
59.07
58.48
58.14
56.89
53.01
44.87
31.71
14.24
-5.56
-25.04
-41.90
-55.08
-65.10
-73.81
-83.65
-96.89
-114.76
-136.74
-160.14
-180.35
-191.61
-188.65
-168.39
-131.36
-81.81
-26.69
26.42
71.27
104.34
124.96
134.61
135.70
130.64
121.39
109.50
96.39
83.45
72.06
63.29
57.75
55.37
55.58
57.52
60.30
63.09
65.05
65.32
62.96
57.21
47.74
34.97
19.99
4.23
-10.94
-24.69
-37.03
-48.74
-61.22
-75.95
-93.71
-113.61
-132.69
-146.17
-148.74
-136.49
-108.58
-67.96
-20.55
26.66
67.71
99.04
119.69
130.52
133.07
128.91
119.45
106.18
90.94
75.85
62.81
53.24
47.63
45.54
45.93
47.52
49.16
49.99
49.43
46.99
42.21
34.61
23.95
10.57
-4.59
-20.08
-34.45
-46.77
-57.10
-66.60
-77.16
-90.86
-108.96
-130.99
-154.11
-173.37
-182.78
-177.31
-154.82
-117.15
-69.76
-19.96
25.09
60.38
83.79
95.94
99.10
96.23
90.08
82.73
75.56
69.30
64.21
60.25
57.22
54.81
52.62
50.24
47.43
44.38
41.54
39.43
38.12
36.94
34.48
29.16
20.07
7.20
-8.22
-24.28
-39.13
-51.68
-61.94
-71.11
-81.08
-93.82
-110.37
-130.04
-149.97
-165.46
-171.17
-162.94
-139.45
-103.01
-58.96
-14.11
25.49
56.13
76.90
89.06
94.80
96.07
94.02
89.21
82.13
73.63
65.04
57.79
52.94
50.67
50.27
50.49
50.11
48.50
45.84
42.86
40.26
38.07
35.45
30.91
22.95
10.96
-4.46
-21.55
-38.06
-52.11
-62.92
-71.03
-77.95
-85.53
-95.39
-108.50
-124.74
-142.69
-159.45
-170.87
-172.46
-160.83
-135.12
-97.78
-54.08
-10.49
27.28
55.88
74.58
84.66
88.13
86.80
81.95
74.50
65.52
56.30
48.22
42.45
39.54
39.22
40.48
42.01
42.61
41.66
39.30
36.19
33.04
30.05
26.67
21.88
14.59
4.26
-8.73
-23.21
-37.66
-50.76
-61.85
-71.16
-79.66
-88.85
-100.21
-114.67
-132.01
-150.46
-166.69
-176.43
-175.55
-161.49
-134.23
-96.64
-53.67
-11.05
26.30
55.40
75.36
86.87
91.34
90.17
84.53
75.56
64.71
53.76
44.60
38.59
36.16
36.68
38.82
41.18
42.88
43.82
44.41
45.04
45.45
44.59
40.94
33.19
21.03
5.45
-11.48
-27.38
-40.46
-50.19
-57.49
-64.36
-73.13
-85.67
-102.61
-122.72
-142.80
-158.06
-163.31
-154.53
-130.39
-92.99
-47.41
-0.19
42.56
76.72
100.67
114.83
120.67
119.85
113.81
103.93
91.80
79.27
68.24
60.13
55.54
54.06
54.64
56.04
57.31
58.06
58.29
57.91
56.45
52.94
46.25
35.60
21.11
3.96
-13.93
-30.62
-44.80
-56.37
-66.41
-76.96
-90.23
-107.78
-129.54
-153.19
-174.10
-186.36
-184.43
-165.16
-129.16
-80.85
-27.20
24.41
68.20
101.19
123.15
135.59
140.61
140.02
135.09
126.90
116.63
105.86
96.28
89.18
85.02
83.23
82.42
81.10
78.33
74.11
69.29
64.87
61.28
57.91
53.21
45.32
32.97
16.12
-3.86
-24.63
-43.75
-59.54
-71.73
-81.53
-91.15
-103.08
-119.11
-139.55
-162.60
-184.30
-199.19
-201.69
-187.81
-156.69
-111.22
-57.42
-2.74
46.07
84.60
111.34
127.20
134.33
134.95
130.83
123.27
113.44
102.72
92.69
84.82
80.06
78.49
79.33
81.14
82.44
82.18
80.09
76.61
72.50
68.28
63.80
58.13
49.97
38.30
22.95
4.93
-13.91
-31.57
-46.60
-58.64
-68.42
-77.47
-87.61
-100.46
-117.02
-137.16
-159.11
-179.28
-192.62
-193.88
-179.34
-148.39
-104.24
-53.08
-2.26
41.88
75.61
98.07
110.61
115.42
114.58
109.56
101.43
91.25
80.35
70.28
62.51
57.97
56.75
58.03
60.39
62.32
62.75
61.41
58.71
55.41
52.00
48.24
43.23
35.77
24.96
10.79
-5.72
-22.85
-38.77
-52.21
-62.91
-71.57
-79.60
-88.60
-100.02
-114.75
-132.68
-152.35
-170.73
-183.56
-186.17
-174.99
-148.88
-109.83
-62.65
-13.66
31.11
67.34
93.17
108.82
115.76
115.75
110.35
100.91
88.86
75.94
64.07
54.95
49.60
48.02
49.24
51.88
54.67
56.84
58.25
59.05
59.28
58.50
55.80
50.10
40.61
27.41
11.61
-4.89
-20.10
-32.71
-42.66
-51.23
-60.55
-72.79
-89.22
-109.46
-131.14
-150.16
-161.53
-160.70
-145.04
-114.82
-73.46
-26.57
19.56
59.71
90.68
111.59
123.13
126.67
123.69
115.45
103.34
89.03
74.57
61.95
52.63
47.10
44.71
44.05
43.61
42.48
40.66
38.84
37.61
36.83
35.24
30.88
22.04
8.18
-9.65
-29.10
-47.53
-63.07
-75.28
-85.19
-94.83
-106.44
-121.78
-141.37
-163.98
-186.32
-203.44
-209.73
-200.68
-174.57
-133.35
-82.37
-28.76
20.64
61.09
90.56
109.36
119.06
121.46
118.07
110.19
99.29
87.13
75.67
66.50
60.42
57.21
55.83
55.01
53.86
52.16
50.30
48.82
47.79
46.58
43.89
38.23
28.52
14.67
-2.30
-20.62
-38.30
-53.95
-67.21
-78.92
-90.83
-104.97
-122.85
-144.66
-168.56
-190.57
-205.23
-206.89
-191.61
-158.74
-111.48
-56.19
-0.54
48.86
87.99
115.70
132.97
141.47
142.68
137.62
127.30
113.34
98.13
84.37
74.20
68.64
67.23
68.39
70.17
71.04
70.30
68.13
65.19
62.04
58.63
54.14
47.26
36.80
22.29
4.36
-15.44
-35.16
-53.11
-68.47
-81.42
-93.06
-105.06
-119.24
-137.07
-158.92
-183.36
-206.84
-224.06
-229.22
-217.77
-188.09
-142.29
-85.80
-25.90
30.22
77.06
111.74
133.88
144.80
146.67
141.66
131.67
118.37
103.45
88.73
76.14
67.31
63.14
63.46
67.09
72.18
76.82
79.56
79.72
77.38
72.99
66.99
59.51
50.18
38.48
24.03
7.04
-11.67
-30.78
-48.94
-65.18
-79.22
-91.41
-102.68
-114.30
-127.68
-144.02
-163.60
-185.16
-205.50
-219.81
-222.87
-210.58
-181.39
-136.93
-81.71
-21.97
35.85
86.34
125.88
152.86
167.39
170.82
165.22
153.00
136.68
118.77
101.74
87.78
78.46
74.31
74.66
77.88
82.02
85.49
87.51
87.99
87.20
85.09
81.01
73.80
62.33
46.24
26.32
4.54
-16.62
-35.03
-49.72
-61.27
-71.54
-83.09
-98.33
-118.57
-143.24
-169.48
-192.32
-205.74
-204.21
-184.50
-146.83
-95.14
-36.04
23.01
75.50
117.13
146.06
162.48
167.81
164.02
153.29
137.82
119.93
101.86
85.66
72.86
64.18
59.45
57.75
57.87
58.73
59.67
60.30
60.32
59.11
55.61
48.55
36.95
20.68
0.73
-21.00
-42.26
-61.12
-76.74
-89.62
-101.54
-115.08
-132.67
-155.48
-182.25
-208.99
-229.54
-237.26
-227.09
-197.27
-150.03
-90.97
-27.44
33.31
85.62
126.04
153.29
167.78
171.10
165.51
153.64
138.17
121.57
105.84
92.43
82.15
75.11
70.83
68.46
67.20
66.47
66.04
65.77
65.34
63.88
60.04
52.40
40.02
23.05
2.77
-18.68
-39.10
-56.94
-71.86
-84.83
-97.82
-113.25
-132.97
-157.24
-183.92
-208.34
-224.22
-225.39
-207.77
-170.89
-118.30
-56.58
6.37
63.37
109.34
141.85
160.81
167.73
164.93
154.99
140.50
123.84
107.21
92.40
80.54
71.98
66.35
62.82
60.56
59.15
58.51
58.63
59.19
59.26
57.32
51.67
41.04
25.14
4.96
-17.36
-39.18
-58.20
-73.36
-85.23
-95.91
-108.32
-125.03
-146.88
-172.24
-196.88
-214.82
-219.91
-207.68
-176.71
-129.24
-70.71
-8.39
50.26
99.32
135.23
157.00
165.75
163.83
154.08
139.27
121.94
104.36
88.47
75.81
67.19
62.50
60.84
60.87
61.42
61.82
61.95
61.83
61.13
58.87
53.65
44.17
29.97
11.75
-8.67
-29.00
-47.28
-62.61
-75.41
-87.39
-100.92
-118.23
-140.32
-166.04
-191.68
-211.48
-219.06
-209.45
-180.84
-135.47
-79.04
-19.11
37.04
83.97
118.84
141.16
151.88
152.65
145.30
131.85
114.57
95.95
78.55
64.45
54.83
49.73
48.16
48.62
49.70
50.62
51.21
51.62
51.77
50.92
47.70
40.54
28.47
11.63
-8.45
-29.36
-48.55
-64.33
-76.48
-86.27
-96.11
-108.67
-125.89
-148.03
-172.99
-196.27
-211.81
-213.58
-197.54
-163.15
-113.81
-56.03
2.40
54.53
95.72
124.03
139.80
144.67
140.76
130.26
115.31
98.13
80.87
65.41
53.12
44.65
39.94
38.42
39.31
41.83
45.28
48.97
52.04
53.42
51.85
46.24
36.11
21.87
4.95
-12.62
-28.85
-42.46
-53.38
-62.82
-72.92
-85.95
-103.38
-124.93
-148.02
-167.85
-178.39
-174.16
-152.07
-112.88
-61.29
-4.73
48.81
92.92
124.17
142.06
148.22
145.06
134.99
120.07
102.24
83.59
66.31
52.36
42.97
38.32
37.68
39.68
42.87
46.04
48.30
48.92
47.13
42.16
33.43
20.91
5.30
-11.98
-29.20
-44.96
-58.64
-70.70
-82.61
-96.45
-113.96
-135.62
-159.76
-182.22
-197.05
-198.16
-181.40
-146.45
-97.22
-40.84
14.56
62.27
98.49
122.51
135.68
140.07
137.53
129.57
117.65
103.59
89.49
77.30
68.19
62.28
58.82
56.76
55.37
54.53
54.53
55.44
56.68
56.79
53.86
46.26
33.44
16.25
-3.23
-22.51
-39.53
-53.42
-64.75
-75.28
-87.34
-103.09
-123.58
-147.95
-172.97
-193.32
-202.75
-195.99
-170.78
-128.95
-76.19
-20.36
30.93
72.40
101.95
120.15
129.01
130.65
126.75
118.59
107.54
95.38
84.04
75.14
69.35
66.19
64.36
62.50
60.01
57.18
55.03
54.36
55.04
55.73
54.25
48.55
37.56
21.69
2.66
-17.07
-35.22
-50.34
-62.23
-71.97
-81.64
-93.65
-109.79
-130.25
-152.79
-172.98
-185.11
-183.87
-166.20
-132.51
-86.67
-34.96
15.72
59.73
93.73
116.84
129.93
134.53
132.13
124.10
111.97
97.73
83.87
72.75
65.91
63.48
64.20
66.02
67.04
66.16
63.36
59.43
55.36
51.69
48.14
43.66
36.81
26.41
12.29
-4.63
-22.34
-38.69
-52.16
-62.54
-70.96
-79.49
-90.35
-105.10
-124.06
-145.84
-167.25
-183.53
-189.37
-180.45
-155.07
-115.10
-65.79
-14.29
32.51
69.86
95.92
111.34
118.07
118.13
112.99
103.74
91.54
77.95
65.01
54.64
48.24
46.12
47.43
50.52
53.49
54.91
54.21
51.71
48.21
44.48
40.65
36.15
29.88
20.81
8.47
-6.68
-23.34
-39.83
-54.63
-66.88
-76.64
-84.79
-92.74
-102.06
-114.09
-129.52
-147.92
-167.25
-183.79
-192.69
-189.25
-170.53
-136.77
-91.65
-41.34
7.31
48.77
80.02
100.62
111.86
115.61
113.52
106.72
96.13
82.94
68.91
56.24
47.08
42.88
43.82
48.70
55.38
61.56
65.57
66.79
65.52
62.44
58.02
52.28
44.77
35.04
23.01
9.18
-5.42
-19.51
-32.03
-42.44
-51.04
-58.78
-66.96
-76.77
-89.09
-104.22
-121.72
-140.18
-156.93
-168.08
-169.24
-156.89
-129.94
-90.55
-43.85
3.62
45.97
79.53
103.27
118.09
125.51
126.73
122.37
112.97
99.50
83.88
68.67
56.52
49.22
47.16
49.27
53.41
57.32
59.46
59.43
57.81
55.42
52.53
48.57
42.27
32.39
18.52
1.41
-17.19
-35.24
-51.11
-64.14
-74.69
-84.00
-93.74
-105.66
-121.11
-140.49
-162.62
-184.38
-200.92
-206.73
-197.32
-170.92
-129.37
-77.90
-23.57
26.80
68.32
98.84
118.67
129.43
133.04
131.02
124.44
114.28
101.87
89.00
77.66
69.50
65.33
64.84
66.76
69.39
71.24
71.52
70.22
67.77
64.64
60.79
55.59
48.07
37.36
23.16
6.09
-12.41
-30.53
-46.68
-60.03
-70.80
-80.09
-89.61
-101.15
-116.15
-135.29
-157.92
-181.62
-202.13
-213.95
-211.69
-191.89
-154.57
-103.64
-45.98
10.56
59.43
96.84
121.96
136.18
141.79
141.00
135.56
126.81
116.04
104.60
93.88
85.06
78.89
75.59
74.81
75.84
77.76
79.60
80.47
79.78
77.20
72.72
66.46
58.53
48.89
37.34
23.69
8.02
-9.16
-26.92
-44.12
-59.80
-73.51
-85.42
-96.25
-107.14
-119.37
-134.09
-151.97
-172.53
-193.63
-211.26
-220.14
-215.10
-192.87
-153.57
-101.10
-42.23
15.36
65.12
103.08
128.28
141.97
146.45
144.08
136.71
125.71
112.37
98.16
84.75
73.82
66.57
63.38
63.80
66.63
70.40
73.71
75.54
75.31
72.89
68.30
61.64
52.97
42.25
29.45
14.68
-1.63
-18.75
-35.79
-51.94
-66.74
-80.18
-92.66
-104.85
-117.58
-131.77
-148.30
-167.57
-188.93
-210.05
-226.81
-233.99
-226.70
-202.11
-160.77
-106.85
-47.12
10.87
60.75
98.70
123.68
136.94
140.84
137.82
129.85
118.34
104.53
89.85
76.14
65.26
58.64
56.76
58.90
63.46
68.53
72.53
74.60
74.68
73.14
70.25
65.83
59.22
49.55
36.32
19.77
1.03
-18.18
-36.11
-51.56
-64.24
-74.81
-84.62
-95.29
-108.39
-124.98
-145.07
-167.24
-188.31
-203.65
-208.12
-197.50
-170.03
-127.25
-73.87
-16.59
37.65
83.36
117.43
139.15
149.49
150.26
143.36
130.67
114.18
96.02
78.46
63.56
52.74
46.46
44.28
45.16
47.99
51.85
56.10
60.19
63.28
64.14
61.40
53.93
41.50
24.98
6.32
-12.12
-28.36
-41.52
-52.18
-62.25
-74.27
-90.55
-112.01
-137.28
-162.47
-181.64
-188.40
-177.88
-148.53
-102.98
-47.37
10.41
63.07
105.54
135.70
153.82
161.48
160.54
152.74
139.75
123.38
105.75
88.99
74.84
64.26
57.23
53.04
50.70
49.45
48.95
49.09
49.63
49.85
48.37
43.51
33.91
19.24
0.44
-20.45
-41.02
-59.38
-74.80
-87.98
-100.79
-115.67
-134.62
-158.09
-184.11
-208.17
-223.99
-225.34
-208.05
-171.70
-120.03
-59.87
0.78
54.95
98.03
128.26
146.06
153.14
151.71
143.92
131.88
117.60
103.00
89.80
79.21
71.70
66.98
64.20
62.48
61.23
60.34
59.88
59.71
59.11
56.74
51.08
41.10
26.73
9.06
-10.01
-28.44
-44.86
-59.06
-72.09
-86.00
-103.09
-124.89
-151.05
-178.68
-202.52
-216.05
-213.48
-191.73
-151.69
-98.26
-38.84
18.67
68.00
105.55
130.54
144.19
148.60
145.89
137.92
126.28
112.55
98.34
85.22
74.40
66.44
61.16
57.89
55.88
54.58
53.76
53.33
52.90
51.60
48.04
40.74
28.79
12.32
-7.30
-27.80
-46.78
-62.60
-75.06
-85.49
-96.42
-110.57
-129.74
-153.77
-179.93
-203.18
-217.27
-216.46
-197.37
-160.29
-109.31
-51.21
6.38
56.91
96.22
122.88
137.55
142.14
138.90
130.07
117.70
103.78
90.14
78.33
69.32
63.36
59.99
58.30
57.44
56.88
56.58
56.64
56.97
56.81
54.78
49.31
39.27
24.64
6.64
-12.60
-30.84
-46.55
-59.45
-70.45
-81.37
-94.33
-110.96
-131.65
-154.85
-176.78
-191.89
-194.33
-179.77
-147.26
-99.95
-44.37
11.53
60.69
98.67
124.13
138.11
142.73
140.17
132.11
120.05
105.49
90.27
76.33
65.25
57.89
54.18
53.43
54.61
56.79
59.20
61.12
61.62
59.57
53.89
44.04
30.34
14.04
-3.10
-19.49
-34.28
-47.72
-61.10
-76.26
-94.90
-117.61
-143.05
-167.52
-185.35
-190.42
-178.12
-147.23
-100.78
-45.38
10.81
60.46
98.85
124.45
138.19
142.37
139.43
131.42
119.97
106.60
92.82
80.03
69.30
61.08
55.27
51.38
48.89
47.54
47.30
48.00
49.02
49.07
46.41
39.45
27.41
10.77
-8.80
-29.01
-47.76
-63.79
-77.13
-89.16
-102.14
-118.45
-139.43
-164.19
-189.08
-208.13
-214.62
-203.35
-172.76
-125.70
-68.78
-10.30
42.18
83.68
112.44
129.34
136.64
136.86
132.08
123.91
113.67
102.82
92.84
84.91
79.59
76.53
74.64
72.73
70.07
66.71
63.33
60.56
58.37
55.73
50.90
42.17
28.76
11.29
-8.40
-27.82
-44.85
-58.55
-69.46
-79.49
-91.21
-106.96
-127.73
-152.38
-177.20
-196.48
-203.89
-194.45
-166.46
-122.38
-68.32
-12.26
38.36
78.66
107.01
124.45
133.34
135.95
133.77
127.55
117.98
106.15
93.71
82.60
74.40
69.93
68.93
70.24
72.18
73.15
72.15
69.02
64.27
58.62
52.49
45.58
37.07
26.02
11.97
-4.65
-22.65
-40.46
-56.71
-70.75
-82.70
-93.35
-103.89
-115.60
-129.69
-146.84
-166.78
-187.73
-206.16
-217.21
-215.89
-198.70
-165.14
-118.29
-64.20
-10.08
37.64
75.05
101.12
117.03
124.91
126.76
123.82
116.92
106.90
95.12
83.33
73.37
66.59
63.57
63.98
66.89
71.05
75.15
78.11
79.10
77.66
73.70
67.45
59.32
49.61
38.46
25.79
11.57
-3.95
-20.03
-35.59
-49.55
-61.26
-70.82
-78.97
-86.91
-95.88
-106.90
-120.62
-137.02
-155.01
-171.91
-183.53
-184.90
-171.92
-143.08
-100.57
-49.94
1.58
47.38
83.24
107.96
122.63
129.21
129.43
124.39
114.87
101.98
87.54
73.92
63.40
57.51
56.58
59.61
64.75
69.95
73.57
74.80
73.72
70.95
67.10
62.37
56.35
48.37
37.81
24.51
9.04
-7.49
-23.78
-38.73
-51.75
-62.94
-72.93
-82.73
-93.62
-106.85
-123.28
-142.74
-163.34
-181.20
-191.09
-187.83
-168.24
-132.70
-85.29
-32.78
17.59
60.25
92.42
113.98
126.33
131.24
130.00
123.56
112.96
99.67
85.62
72.87
63.05
57.12
55.14
56.42
59.72
63.60
66.59
67.63
66.21
62.29
56.31
48.76
40.02
30.21
19.28
7.05
-6.53
-21.23
-36.60
-51.92
-66.47
-79.74
-91.61
-102.44
-113.06
-124.57
-138.15
-154.55
-173.38
-192.48
-207.78
-213.96
-205.99
-181.14
-140.32
-88.21
-32.01
20.97
65.21
98.12
119.71
131.59
135.68
133.67
126.93
116.77
104.64
92.18
80.94
72.20
66.72
64.54
65.04
67.09
69.34
70.56
70.05
67.66
63.62
58.32
51.94
44.43
35.49
24.74
11.93
-2.95
-19.51
-36.96
-54.28
-70.48
-84.85
-97.25
-108.23
-118.85
-130.58
-144.90
-162.69
-183.38
-204.35
-220.93
-227.27
-218.13
-190.86
-146.81
-91.19
-31.56
24.35
70.79
104.90
126.64
137.59
139.99
135.87
126.86
114.44
100.14
85.68
72.91
63.49
58.38
57.55
59.91
63.64
66.86
68.22
67.31
64.55
60.72
56.39
51.65
45.99
38.54
28.47
15.40
-0.40
-17.98
-35.97
-52.93
-67.88
-80.60
-91.70
-102.31
-113.96
-128.01
-145.22
-165.17
-185.80
-203.19
-212.27
-208.07
-187.42
-150.33
-100.38
-43.75
12.49
62.26
101.63
129.11
145.02
150.67
147.70
137.82
122.91
105.17
87.06
71.12
59.41
52.99
51.62
53.92
57.90
61.78
64.54
66.03
66.63
66.52
65.23
61.58
54.14
42.04
25.45
5.82
-14.61
-33.55
-49.49
-62.20
-72.79
-83.35
-96.29
-113.41
-135.15
-159.90
-183.94
-201.99
-208.45
-199.00
-171.95
-129.03
-75.08
-16.80
38.91
86.56
122.87
146.80
159.00
161.00
154.67
142.04
125.29
106.81
89.08
74.26
63.76
57.93
56.07
56.76
58.46
59.98
60.72
60.56
59.50
57.24
52.96
45.59
34.21
18.69
-0.07
-20.30
-39.92
-57.38
-72.25
-85.31
-98.41
-113.81
-133.32
-157.35
-184.19
-209.76
-228.31
-233.87
-222.06
-191.58
-144.75
-86.98
-25.27
33.47
83.84
122.60
148.70
162.79
166.59
162.38
152.56
139.44
125.11
111.40
99.75
91.04
85.45
82.37
80.77
79.64
78.41
77.10
75.96
75.01
73.59
70.35
63.65
52.24
36.00
16.07
-5.37
-25.84
-43.49
-57.74
-69.51
-80.95
-94.72
-112.99
-136.39
-163.23
-189.34
-208.72
-215.09
-203.77
-173.35
-126.35
-68.68
-8.03
48.16
94.41
128.04
148.84
158.35
158.80
152.44
141.38
127.61
113.08
99.59
88.60
80.86
76.22
73.78
72.36
70.93
69.14
67.17
65.53
64.42
63.24
60.59
54.64
43.91
28.04
8.17
-13.37
-33.80
-51.06
-64.59
-75.52
-86.29
-99.68
-117.76
-140.94
-167.34
-192.74
-211.32
-216.99
-205.20
-174.60
-127.73
-70.54
-10.75
44.27
89.20
121.59
141.51
150.50
150.62
143.80
131.79
116.45
99.98
84.71
72.79
65.51
62.83
63.42
65.19
66.14
65.18
62.38
58.72
55.25
52.28
49.07
44.05
35.63
22.95
6.50
-12.11
-30.74
-47.48
-61.44
-73.01
-83.62
-95.28
-109.83
-128.32
-150.46
-174.06
-195.13
-208.37
-208.43
-191.63
-157.43
-109.14
-53.14
2.77
51.69
89.27
114.32
128.14
133.21
131.88
125.74
115.73
102.74
88.05
73.53
61.22
52.82
49.11
49.63
52.98
57.34
61.02
63.00
62.97
61.12
57.78
53.11
47.02
39.24
29.48
17.66
3.92
-11.28
-27.28
-43.22
-58.29
-71.83
-83.60
-93.91
-103.63
-114.06
-126.59
-142.19
-160.75
-180.39
-197.30
-206.29
-202.12
-181.39
-144.07
-93.95
-37.70
17.21
64.59
100.91
125.33
138.91
143.28
139.97
130.27
115.64
98.08
80.20
64.71
53.96
49.15
50.08
55.16
61.99
68.05
71.60
72.11
70.14
66.80
62.88
58.33
52.39
43.96
32.33
17.67
1.04
-16.00
-31.97
-45.90
-57.62
-67.62
-76.91
-86.77
-98.45
-112.92
-130.36
-149.61
-167.77
-180.39
-182.39
-169.61
-140.59
-97.40
-45.44
8.18
56.82
96.01
124.09
141.58
150.00
150.70
144.62
132.59
115.97
96.96
78.40
63.10
53.09
49.03
50.05
54.11
58.74
61.84
62.31
60.21
56.40
51.76
46.60
40.33
31.90
20.38
5.63
-11.55
-29.74
-47.44
-63.61
-77.95
-90.83
-103.01
-115.62
-129.99
-147.31
-168.07
-191.23
-213.67
-230.35
-235.46
-224.24
-194.70
-148.71
-91.60
-30.69
26.69
75.08
111.62
135.99
149.52
154.18
151.88
144.21
132.62
118.69
104.28
91.34
81.60
76.03
74.53
75.98
78.57
80.50
80.52
78.40
74.69
70.18
65.23
59.36
51.42
40.16
25.10
6.83
-13.01
-32.47
-50.02
-65.06
-78.06
-90.26
-103.19
-118.41
-137.11
-159.52
-184.33
-208.25
-226.27
-232.64
-222.60
-194.15
-149.02
-92.46
-31.81
25.44
73.56
109.59
133.26
146.05
150.12
147.37
139.31
127.20
112.51
97.04
82.77
71.42
63.91
60.16
59.29
59.98
60.94
61.30
60.74
59.31
57.19
54.30
50.11
43.64
33.80
20.00
2.54
-17.23
-37.30
-55.72
-71.30
-83.99
-94.83
-105.50
-117.92
-133.67
-153.50
-176.68
-200.57
-220.62
-231.25
-227.29
-205.68
-166.69
-114.12
-54.34
5.46
58.99
101.99
132.59
150.88
158.16
156.24
147.14
133.01
116.09
98.77
83.34
71.54
64.15
60.86
60.46
61.45
62.73
63.89
65.00
66.26
67.25
66.83
63.31
55.18
41.88
24.13
3.80
-16.65
-35.09
-50.38
-62.68
-73.39
-84.71
-98.99
-117.84
-141.20
-166.68
-189.53
-203.56
-202.90
-183.93
-146.72
-95.28
-36.39
22.26
74.18
115.28
144.11
161.08
167.55
165.01
154.91
138.96
119.45
99.22
81.25
67.86
59.98
56.99
57.12
58.36
59.18
59.02
58.00
56.44
54.28
50.75
44.64
34.76
20.53
2.42
-18.09
-38.91
-58.01
-74.31
-88.01
-100.60
-114.40
-131.70
-153.67
-179.44
-205.68
-227.05
-237.41
-231.68
-207.39
-165.77
-111.38
-50.87
8.80
61.95
105.03
136.58
156.72
166.57
167.69
161.86
151.03
137.13
122.04
107.64
95.57
87.02
82.41
81.26
82.27
83.83
84.60
83.93
81.88
78.63
74.01
67.29
57.40
43.52
25.76
5.28
-16.03
-36.17
-53.78
-68.53
-81.05
-92.90
-106.02
-122.42
-143.38
-168.72
-196.01
-220.59
-236.42
-237.67
-220.55
-184.66
-133.27
-72.57
-10.04
47.39
94.73
129.57
151.83
163.04
165.39
160.98
151.61
138.83
124.26
109.62
96.69
86.88
80.85
78.29
78.13
78.96
79.52
79.08
77.50
74.96
71.61
67.08
60.46
50.57
36.55
18.44
-2.55
-24.35
-44.73
-62.10
-76.07
-87.48
-98.09
-110.01
-125.21
-144.82
-168.48
-193.92
-216.79
-231.45
-232.32
-215.51
-180.27
-129.46
-69.00
-6.43
50.95
97.78
131.36
151.75
160.89
161.44
155.86
145.95
133.00
118.22
103.15
89.61
79.24
72.96
70.60
70.97
72.48
73.71
73.79
72.53
70.08
66.58
61.81
55.00
45.13
31.37
13.64
-7.08
-28.87
-49.47
-67.08
-81.02
-91.93
-101.47
-111.77
-124.88
-142.20
-163.85
-188.22
-211.71
-229.10
-234.66
-223.80
-194.60
-148.77
-91.43
-29.68
29.06
78.87
116.32
140.58
152.76
155.06
149.90
139.39
125.47
109.97
94.85
82.10
73.20
68.69
67.87
69.12
70.62
71.17
70.49
69.10
67.68
66.36
64.32
60.06
51.94
39.00
21.51
1.10
-19.76
-38.59
-53.82
-65.32
-74.39
-83.32
-94.62
-110.15
-130.43
-153.96
-177.08
-194.38
-199.97
-189.11
-160.04
-114.89
-59.33
-1.01
52.66
96.42
127.93
147.30
156.06
155.99
148.68
135.65
118.71
100.18
82.66
68.42
58.72
53.57
51.78
51.77
52.30
52.82
53.52
54.68
56.02
56.34
53.73
46.39
33.51
15.81
-4.57
-24.84
-42.62
-56.87
-68.14
-78.39
-90.24
-106.15
-127.26
-152.69
-178.98
-200.53
-210.83
-204.48
-179.02
-136.05
-81.05
-21.63
34.59
81.92
117.55
141.18
154.07
157.83
153.83
143.30
127.81
109.59
91.46
76.24
65.80
60.50
59.13
59.67
60.19
59.68
58.15
56.27
54.53
52.70
49.71
44.04
34.46
20.54
3.04
-16.34
-35.49
-52.61
-66.98
-79.11
-90.59
-103.51
-119.89
-140.75
-165.49
-191.42
-213.79
-226.59
-224.16
-203.05
-163.66
-110.44
-50.72
7.52
57.90
97.01
124.23
140.73
148.18
148.07
141.69
130.64
116.85
102.51
89.63
79.51
72.48
68.10
65.45
63.60
62.03
60.63
59.65
59.21
58.80
57.14
52.45
43.20
28.81
10.22
-10.44
-30.55
-48.00
-61.90
-72.85
-82.59
-93.66
-108.54
-128.77
-154.03
-181.43
-205.59
-219.72
-217.61
-195.83
-155.27
-101.08
-41.22
15.90
63.77
99.11
121.78
133.68
137.43
135.18
128.36
118.05
105.45
92.21
80.19
70.81
64.56
60.84
58.40
56.08
53.47
51.01
49.50
49.47
50.44
50.88
48.59
41.41
28.21
9.47
-12.70
-35.23
-55.08
-70.45
-81.36
-89.67
-98.35
-110.37
-127.55
-149.84
-174.94
-198.48
-214.81
-218.26
-204.67
-172.92
-125.61
-68.70
-9.98
43.01
84.90
113.21
128.32
132.33
128.07
118.17
104.96
90.45
76.57
65.03
57.02
52.84
51.74
52.07
51.99
50.29
46.87
42.60
38.76
36.05
33.95
30.79
24.55
13.85
-1.20
-19.13
-37.63
-54.52
-68.60
-79.96
-89.81
-100.16
-113.11
-130.11
-151.12
-173.85
-193.82
-205.29
-202.89
-183.52
-147.58
-99.08
-44.47
9.25
56.30
93.15
118.56
132.99
137.73
134.24
124.14
109.35
92.30
75.72
62.23
53.58
50.18
51.08
54.58
59.00
63.35
67.33
71.02
74.19
76.02
75.09
70.02
60.05
45.45
27.48
7.97
-11.31
-29.15
-45.30
-60.48
-76.04
-93.51
-113.83
-136.54
-159.20
-177.43
-185.84
-179.61
-156.37
-117.26
-67.11
-12.99
37.89
80.17
111.28
131.26
141.59
143.97
139.74
129.91
115.77
99.20
82.49
67.89
56.99
50.35
47.42
47.13
48.29
49.94
51.51
52.63
52.84
51.37
47.17
39.16
26.83
10.59
-8.15
-27.27
-44.82
-59.80
-72.58
-84.85
-99.03
-117.14
-139.82
-165.44
-189.85
-207.13
-211.08
-197.17
-164.24
-115.27
-56.73
3.19
56.92
99.35
128.55
145.35
152.19
151.83
146.63
138.50
129.15
120.23
113.30
109.31
108.15
108.36
107.60
103.55
95.01
82.49
68.02
54.24
43.09
34.88
28.22
20.71
10.14
-4.40
-22.22
-41.45
-59.86
-75.86
-89.02
-100.09
-110.68
-122.77
-138.11
-157.52
-180.10
-202.76
-220.46
-227.24
-218.07
-190.71
-146.84
-91.80
-33.05
21.99
67.89
102.12
124.82
137.77
143.16
142.86
138.24
130.43
120.67
110.41
101.20
94.29
90.28
88.96
89.46
90.65
91.43
91.07
89.29
86.23
82.14
77.25
71.48
64.38
55.27
43.48
28.74
11.41
-7.52
-26.68
-44.71
-60.73
-74.47
-86.34
-97.26
-108.58
-121.80
-138.29
-158.63
-181.75
-204.47
-221.59
-227.09
-216.01
-186.34
-140.11
-82.99
-22.75
33.01
78.79
112.06
132.98
143.41
145.75
142.23
134.74
124.90
114.28
104.31
96.18
90.51
87.34
86.18
86.37
87.34
88.69
90.10
91.12
91.06
89.04
84.28
76.45
65.85
53.34
40.00
26.74
13.88
1.19
-11.97
-26.12
-41.39
-57.27
-72.78
-86.86
-98.80
-108.60
-117.20
-126.37
-138.32
-154.85
-176.36
-200.80
-223.51
-238.03
-237.92
-219.03
-181.16
-128.44
-68.15
-8.47
43.69
84.17
111.80
127.67
133.96
133.10
127.28
118.37
108.04
97.80
88.85
81.99
77.45
75.01
74.21
74.67
76.15
78.53
81.50
84.34
85.86
84.67
79.70
70.68
58.27
43.83
28.88
14.58
1.35
-11.08
-23.38
-36.20
-49.80
-63.95
-77.99
-91.09
-102.59
-112.36
-120.95
-129.70
-140.52
-155.10
-173.98
-195.54
-215.71
-228.62
-228.24
-210.41
-174.48
-123.68
-64.34
-3.98
50.65
94.98
126.97
146.77
155.81
156.10
149.73
138.74
125.13
110.78
97.45
86.63
79.30
75.88
76.16
79.37
84.41
90.04
95.02
98.29
98.97
96.49
90.64
81.69
70.31
57.52
44.28
31.23
18.55
5.93
-7.11
-20.95
-35.58
-50.46
-64.75
-77.56
-88.41
-97.53
-106.07
-115.89
-128.93
-146.18
-166.63
-186.71
-200.75
-202.54
-187.35
-153.87
-104.94
-46.77
12.87
66.84
110.27
141.08
159.52
167.18
166.01
157.92
144.71
128.26
110.62
93.94
80.12
70.48
65.53
64.87
67.45
71.79
76.34
79.75
81.03
79.62
75.31
68.24
58.77
47.39
34.57
20.66
5.88
-9.67
-25.96
-42.83
-59.92
-76.66
-92.40
-106.64
-119.26
-130.83
-142.54
-156.10
-173.05
-193.75
-216.49
-237.17
-249.98
-248.97
-229.93
-192.03
-138.27
-74.81
-9.30
50.95
100.51
136.53
158.66
168.45
168.53
161.82
150.91
137.92
124.35
111.32
99.77
90.49
83.99
80.38
79.32
80.06
81.66
83.12
83.66
82.75
80.12
75.61
69.12
60.47
49.41
35.82
19.73
1.56
-17.91
-37.61
-56.49
-73.65
-88.65
-101.60
-113.20
-124.73
-137.79
-153.94
-173.97
-197.00
-220.04
-238.16
-245.57
-237.26
-210.57
-166.28
-108.51
-43.79
20.50
77.72
123.18
154.64
172.28
178.02
174.70
165.24
152.06
136.94
121.23
106.19
93.15
83.34
77.47
75.50
76.52
79.15
81.89
83.57
83.49
81.37
77.17
70.93
62.67
52.32
39.86
25.32
8.94
-8.75
-27.02
-44.98
-61.87
-77.16
-90.83
-103.29
-115.46
-128.61
-144.19
-163.28
-185.77
-209.62
-230.62
-243.09
-241.33
-221.59
-183.40
-129.98
-67.46
-3.30
55.44
103.52
138.12
158.81
167.05
165.44
156.86
143.94
128.72
112.72
97.16
83.23
72.09
64.57
60.99
61.00
63.69
67.79
72.00
75.14
76.30
74.87
70.60
63.63
54.32
43.10
30.33
16.24
0.98
-15.14
-31.56
-47.62
-62.67
-76.32
-88.61
-99.97
-111.18
-123.31
-137.59
-155.09
-175.94
-198.51
-219.08
-232.15
-231.95
-214.28
-178.21
-126.72
-66.06
-3.93
52.58
98.56
131.83
152.62
162.53
163.57
157.51
145.90
130.30
112.59
95.04
80.01
69.27
63.52
62.22
63.96
67.08
70.34
73.14
75.41
77.14
77.91
76.71
72.12
62.90
48.67
30.25
9.62
-10.73
-28.60
-42.90
-54.00
-63.48
-73.57
-86.50
-103.80
-125.75
-150.86
-175.58
-194.61
-201.98
-192.79
-164.99
-120.47
-64.83
-5.73
49.33
94.97
128.74
150.71
162.28
165.05
160.23
148.82
132.17
112.33
92.03
74.10
60.61
52.36
48.71
48.08
48.71
49.38
49.66
49.73
49.78
49.57
48.05
43.64
34.88
21.03
2.59
-18.72
-40.48
-60.29
-76.61
-89.24
-99.35
-109.25
-121.63
-138.74
-161.36
-187.94
-214.34
-234.45
-241.74
-231.23
-201.14
-153.72
-94.61
-31.30
28.85
80.12
119.24
145.29
159.19
162.81
158.40
148.26
134.54
119.20
104.06
90.68
80.16
72.95
68.71
66.53
65.27
64.06
62.62
61.24
60.32
59.83
58.85
55.71
48.52
36.07
18.47
-2.69
-24.79
-45.16
-62.09
-75.32
-86.11
-96.80
-110.08
-128.04
-151.28
-178.03
-203.96
-222.87
-228.29
-215.54
-183.44
-134.95
-76.40
-15.64
40.08
85.79
119.19
140.31
150.52
151.63
145.48
133.84
118.59
101.94
86.16
73.23
64.32
59.48
57.71
57.43
57.24
56.42
55.04
53.65
52.67
51.86
50.10
45.70
37.01
23.21
4.74
-16.64
-38.42
-58.17
-74.44
-87.18
-97.80
-108.56
-121.93
-139.64
-161.86
-186.57
-209.56
-225.11
-227.46
-212.53
-179.45
-131.11
-73.53
-14.19
40.00
84.12
115.95
135.60
144.55
144.74
138.08
126.36
111.49
95.66
81.28
70.50
64.58
63.46
65.69
69.13
71.72
72.29
70.82
68.13
65.19
62.33
58.88
53.42
44.50
31.30
14.26
-5.00
-24.20
-41.27
-55.09
-65.85
-74.97
-84.57
-96.89
-113.55
-134.90
-159.41
-183.47
-201.78
-208.51
-199.05
-171.64
-128.28
-74.38
-17.24
35.98
80.05
112.42
133.05
143.37
145.25
140.34
130.00
115.74
99.48
83.67
70.81
62.79
60.24
62.28
66.85
71.57
74.67
75.48
74.43
72.42
70.01
66.86
61.77
53.29
40.60
24.14
5.59
-12.78
-28.95
-41.96
-52.16
-60.93
-70.20
-81.91
-97.53
-117.63
-141.17
-165.12
-184.56
-193.67
-187.36
-163.18
-122.50
-70.30
-13.79
39.74
84.77
118.53
140.84
153.10
157.16
154.63
146.76
134.65
119.77
103.98
89.41
77.91
70.65
67.75
68.53
71.69
75.79
79.47
81.62
81.36
78.13
71.76
62.51
51.06
38.31
24.99
11.56
-1.96
-15.87
-30.49
-45.86
-61.71
-77.41
-92.25
-105.66
-117.52
-128.39
-139.52
-152.56
-168.97
-189.04
-211.08
-231.09
-243.42
-242.19
-223.32
-186.03
-133.51
-72.06
-9.51
46.99
92.41
124.60
143.96
152.61
153.31
148.70
140.89
131.43
121.49
112.05
103.90
97.70
93.70
91.79
91.60
92.62
94.37
96.34
97.90
98.23
96.34
91.34
82.82
71.11
57.19
42.42
27.95
14.31
1.25
-12.02
-26.32
-41.94
-58.42
-74.63
-89.29
-101.55
-111.48
-120.24
-129.85
-142.59
-160.09
-182.20
-206.33
-227.44
-239.16
-235.47
-212.84
-171.52
-115.86
-53.08
8.74
62.70
104.54
132.94
148.90
154.75
153.11
146.34
136.38
124.99
113.74
104.04
96.82
92.41
90.34
89.75
89.80
90.06
90.54
91.44
92.71
93.73
93.28
90.00
82.89
71.83
57.62
41.79
25.96
11.26
-2.09
-14.72
-27.75
-42.08
-57.92
-74.65
-91.07
-105.89
-118.35
-128.53
-137.54
-147.23
-159.78
-176.81
-198.41
-222.25
-243.54
-255.93
-253.33
-231.95
-191.83
-137.05
-74.60
-12.41
42.67
86.19
116.45
134.06
141.03
139.96
133.34
123.37
111.87
100.37
90.20
82.37
77.47
75.46
75.86
77.96
81.20
85.20
89.65
94.06
97.43
98.44
95.80
88.83
77.81
63.96
48.94
34.21
20.55
7.82
-4.72
-17.96
-32.41
-47.96
-63.83
-78.85
-91.99
-102.66
-111.26
-119.05
-128.09
-140.51
-157.51
-178.35
-199.73
-216.20
-221.45
-210.27
-180.46
-133.79
-75.67
-13.61
44.79
93.72
130.06
153.38
165.07
167.34
162.35
151.90
137.53
120.88
103.86
88.62
77.10
70.44
68.63
70.54
74.37
78.29
80.94
81.64
80.35
77.30
72.65
66.34
58.05
47.34
33.91
17.82
-0.42
-19.88
-39.40
-57.94
-74.84
-90.00
-103.94
-117.80
-133.10
-151.36
-173.25
-197.68
-221.32
-238.90
-244.51
-233.44
-203.80
-157.28
-98.72
-34.77
27.71
82.97
127.14
158.36
176.63
183.41
181.04
172.19
159.32
144.40
128.95
114.32
101.76
92.30
86.44
83.93
83.79
84.77
85.65
85.62
84.32
81.65
77.50
71.68
63.87
53.72
40.96
25.58
7.91
-11.32
-31.15
-50.53
-68.57
-84.84
-99.49
-113.17
-127.08
-142.65
-161.24
-183.42
-208.13
-232.16
-250.41
-257.10
-247.43
-219.25
-173.76
-115.21
-49.82
15.64
75.02
123.65
158.70
179.39
186.80
183.49
172.73
157.69
140.91
124.15
108.68
95.57
85.78
79.88
77.80
78.65
80.95
83.08
83.78
82.46
79.21
74.45
68.44
61.06
51.71
39.69
24.65
6.88
-12.70
-32.77
-52.13
-69.99
-86.15
-100.95
-115.12
-129.86
-146.60
-166.57
-189.86
-214.63
-236.75
-250.50
-250.18
-231.97
-195.27
-143.02
-80.88
-15.81
45.44
97.52
137.04
162.70
175.13
176.24
168.69
155.22
138.24
119.85
101.95
86.31
74.34
66.77
63.30
62.75
63.57
64.35
64.29
63.19
61.27
58.67
55.20
50.16
42.56
31.48
16.47
-2.07
-22.86
-44.11
-64.04
-81.54
-96.42
-109.38
-121.80
-135.41
-151.74
-171.49
-193.82
-215.77
-232.56
-238.65
-229.37
-202.46
-159.02
-103.09
-40.64
21.83
78.46
124.82
158.18
177.63
183.93
179.20
166.33
148.43
128.41
108.85
91.92
79.25
71.61
68.67
69.13
71.17
73.22
74.44
74.83
74.72
74.14
72.46
68.44
60.73
48.56
32.19
12.90
-7.32
-26.47
-43.16
-57.04
-68.86
-80.29
-93.40
-110.08
-131.22
-155.85
-180.74
-200.65
-209.49
-202.01
-175.64
-131.54
-74.55
-11.91
48.67
100.90
140.94
167.53
181.34
184.05
177.62
164.02
145.32
123.89
102.41
83.48
69.11
60.12
55.89
54.81
54.98
55.02
54.42
53.43
52.43
51.29
49.08
44.24
35.32
21.61
3.62
-17.02
-38.12
-57.65
-74.47
-88.62
-101.39
-114.87
-131.36
-152.47
-178.04
-205.46
-229.78
-244.71
-244.39
-225.30
-187.39
-134.17
-71.72
-7.11
53.11
103.95
142.44
167.55
179.86
181.09
173.63
160.07
142.95
124.59
107.01
91.79
79.97
71.77
66.70
63.86
62.29
61.36
60.82
60.52
60.05
58.52
54.58
46.82
34.34
17.21
-3.24
-24.84
-45.20
-62.62
-76.71
-88.60
-100.60
-115.42
-135.17
-160.23
-188.51
-215.44
-234.73
-240.07
-226.97
-194.29
-144.72
-84.11
-19.93
40.57
91.77
130.31
155.12
166.88
167.55
159.67
145.94
128.96
111.02
94.01
79.46
68.40
61.19
57.45
56.17
56.12
56.35
56.37
56.11
55.51
53.96
50.25
42.88
30.79
14.03
-5.98
-26.89
-46.35
-62.90
-76.50
-88.63
-101.66
-118.00
-139.14
-164.68
-191.88
-215.73
-230.05
-229.10
-209.35
-170.80
-117.22
-55.24
7.37
63.61
108.65
140.29
158.72
165.58
163.13
153.68
139.36
122.31
104.79
89.05
76.91
69.22
65.63
64.72
64.72
64.23
62.72
60.52
58.29
56.30
54.00
50.01
42.67
30.84
14.45
-5.25
-26.10
-45.76
-62.56
-76.06
-87.22
-98.00
-110.89
-128.01
-150.17
-176.14
-202.18
-222.53
-230.79
-221.77
-193.31
-147.33
-89.39
-27.27
31.28
80.34
116.85
140.42
152.49
155.15
150.38
139.91
125.37
108.65
91.85
76.99
65.50
57.81
53.39
51.12
49.98
49.43
49.37
49.88
50.74
51.06
49.36
43.85
33.19
17.19
-2.94
-24.74
-45.31
-62.40
-75.24
-84.84
-93.66
-104.66
-120.21
-141.17
-166.17
-191.52
-211.82
-221.13
-214.61
-189.99
-148.39
-94.29
-34.39
24.12
75.24
115.05
142.10
156.87
160.99
156.62
146.02
131.41
114.94
98.67
84.35
73.21
65.63
61.26
59.23
58.65
58.89
59.60
60.45
60.79
59.56
55.43
47.35
35.00
19.14
1.43
-16.09
-31.71
-44.74
-55.82
-66.75
-79.96
-97.47
-119.88
-145.46
-169.92
-187.16
-190.96
-176.88
-144.05
-95.70
-38.41
19.87
71.94
113.03
141.29
157.23
162.59
159.40
149.52
134.74
117.04
98.68
81.89
68.42
59.04
53.45
50.59
49.25
48.62
48.35
48.34
48.23
47.11
43.50
35.99
23.89
7.74
-10.79
-29.42
-46.19
-60.23
-72.03
-83.33
-96.58
-114.05
-136.77
-163.62
-190.83
-212.41
-221.55
-212.74
-183.85
-137.11
-78.77
-17.20
39.53
85.77
119.16
140.10
150.62
152.97
149.00
140.11
127.66
113.35
99.08
86.59
76.90
70.07
65.33
61.69
58.56
55.89
54.15
53.70
54.30
54.73
53.09
47.33
36.15
19.62
-0.66
-22.04
-41.75
-57.93
-70.33
-80.39
-90.78
-104.42
-123.31
-147.56
-174.65
-199.53
-215.64
-216.72
-198.80
-161.82
-109.93
-50.32
8.88
60.87
101.61
129.98
146.93
154.25
153.73
146.88
135.18
120.45
104.91
90.82
79.90
72.77
68.89
66.84
65.12
62.80
59.84
56.88
54.72
53.51
52.50
50.01
44.14
33.56
18.15
-0.82
-21.09
-40.17
-56.29
-69.00
-79.23
-89.06
-100.96
-117.04
-138.16
-163.23
-188.85
-209.60
-219.24
-212.48
-186.88
-144.01
-89.25
-30.31
25.11
71.30
105.57
127.99
140.25
144.42
142.13
134.57
122.87
108.52
93.53
80.07
69.89
63.80
61.37
61.24
61.75
61.60
60.34
58.31
56.22
54.44
52.54
49.24
42.90
32.29
17.26
-1.05
-20.60
-39.24
-55.50
-69.05
-80.60
-91.54
-103.45
-117.79
-135.59
-156.90
-180.19
-201.83
-216.46
-218.24
-202.82
-169.27
-120.75
-63.79
-6.27
44.95
85.59
114.32
132.06
140.69
142.06
137.50
128.01
114.74
99.34
83.89
70.57
61.06
55.98
54.81
56.23
58.61
60.57
61.25
60.33
57.87
54.12
49.20
43.11
35.59
26.23
14.65
0.79
-14.95
-31.69
-48.45
-64.42
-79.17
-92.63
-105.08
-117.05
-129.41
-143.37
-160.01
-179.50
-200.17
-218.09
-227.84
-223.99
-203.08
-165.12
-113.86
-55.73
1.96
52.96
93.28
121.48
138.04
144.50
142.55
133.83
120.00
103.09
85.61
70.27
59.38
54.07
53.95
57.35
62.03
66.11
68.66
69.73
69.92
69.72
68.90
66.53
61.29
52.06
38.56
21.65
3.11
-15.01
-31.17
-44.81
-56.45
-67.31
-78.78
-92.07
-108.10
-127.21
-148.77
-170.55
-188.50
-197.21
-191.47
-168.25
-128.16
-75.78
-18.32
36.67
83.39
118.87
142.78
156.24
160.71
157.40
147.31
131.84
113.16
94.01
77.17
64.67
57.19
54.04
53.61
54.18
54.52
54.23
53.55
52.77
51.78
49.80
45.44
37.33
24.72
7.89
-11.73
-32.03
-50.94
-67.22
-80.87
-93.18
-106.17
-121.91
-141.82
-165.81
-191.89
-216.13
-233.23
-237.70
-225.43
-195.10
-148.85
-91.91
-31.09
26.86
76.82
115.97
143.59
160.33
167.49
166.57
159.17
147.15
132.38
116.82
102.23
89.96
80.66
74.39
70.63
68.58
67.48
66.83
66.39
65.90
64.71
61.64
55.24
44.38
28.81
9.52
-11.61
-32.33
-50.84
-66.35
-79.16
-90.62
-102.88
-118.37
-138.95
-164.81
-193.58
-220.19
-237.91
-240.29
-223.34
-186.96
-134.93
-73.74
-10.76
47.53
96.53
133.81
158.73
172.01
175.17
170.21
159.36
144.90
128.99
113.58
100.14
89.56
81.97
76.93
73.67
71.45
69.79
68.44
67.24
65.90
63.78
59.97
53.35
43.01
28.60
10.57
-9.77
-30.56
-49.95
-66.77
-80.86
-93.25
-105.93
-121.17
-140.83
-165.22
-192.37
-217.85
-235.51
-239.15
-224.46
-190.47
-140.01
-78.94
-14.59
46.02
97.45
136.51
162.21
175.31
177.71
171.85
160.17
144.95
128.18
111.68
97.14
85.90
78.60
74.94
73.81
73.68
73.25
71.88
69.56
66.65
63.35
59.30
53.53
44.85
32.32
15.80
-3.89
-25.06
-45.72
-64.26
-79.94
-93.11
-105.07
-117.72
-132.99
-152.21
-175.27
-199.99
-222.11
-235.93
-235.81
-217.91
-181.52
-129.60
-68.05
-4.22
54.86
103.87
139.92
162.40
172.47
172.22
164.07
150.37
133.32
115.02
97.54
82.87
72.53
67.14
66.10
67.82
70.33
71.90
71.62
69.48
66.01
61.73
56.70
50.40
41.89
30.39
15.56
-2.11
-21.42
-40.83
-58.89
-74.64
-87.89
-99.17
-109.75
-121.38
-135.98
-154.86
-177.84
-202.50
-224.09
-236.45
-233.81
-212.67
-173.15
-119.08
-57.07
5.43
61.77
107.32
139.76
158.94
166.14
163.49
153.47
138.54
121.00
102.99
86.50
73.28
64.61
60.91
61.63
65.32
70.06
74.10
76.35
76.59
75.21
72.70
69.13
63.98
56.25
45.07
30.16
12.27
-7.06
-25.98
-42.96
-57.27
-69.16
-79.60
-90.09
-102.26
-117.55
-136.65
-158.75
-181.04
-198.81
-206.33
-198.45
-172.44
-129.18
-73.22
-11.59
48.13
99.67
139.26
165.73
179.77
183.05
177.41
164.64
146.66
125.83
104.84
86.44
72.75
64.65
61.53
61.65
62.96
63.86
63.69
62.63
61.17
59.41
56.62
51.42
42.30
28.38
9.95
-11.49
-33.70
-54.42
-72.17
-86.70
-98.93
-110.79
-124.51
-142.12
-164.49
-190.53
-216.76
-237.68
-247.02
-239.53
-212.77
-168.09
-110.34
-46.56
15.87
70.84
114.44
145.02
162.78
169.09
165.95
155.65
140.62
123.35
106.22
91.26
79.90
72.58
68.76
67.16
66.32
65.22
63.58
61.73
60.12
58.69
56.52
52.09
43.86
31.01
13.93
-5.86
-26.19
-45.06
-61.29
-74.91
-87.09
-99.85
-115.43
-135.55
-160.50
-188.25
-214.39
-232.74
-236.95
-222.54
-188.46
-137.70
-76.51
-12.69
46.44
95.59
132.14
155.81
167.87
170.26
164.97
153.82
138.62
121.29
103.91
88.63
77.16
70.29
67.63
67.78
68.87
69.28
68.19
65.70
62.47
59.05
55.31
50.37
42.87
31.66
16.42
-2.08
-22.24
-42.14
-60.26
-75.87
-89.18
-101.18
-113.38
-127.50
-145.05
-166.60
-190.99
-214.89
-233.02
-239.35
-228.91
-199.55
-152.91
-94.12
-30.49
30.48
82.79
122.95
149.98
164.78
169.22
165.38
155.19
140.45
122.97
104.79
88.15
75.06
66.84
63.72
64.74
68.19
72.18
75.19
76.35
75.44
72.57
67.86
61.27
52.56
41.51
28.01
12.25
-5.19
-23.46
-41.56
-58.56
-73.86
-87.38
-99.59
-111.45
-124.33
-139.65
-158.44
-180.52
-203.90
-224.50
-236.79
-235.18
-215.83
-178.10
-125.09
-62.93
0.76
58.81
105.96
139.57
159.49
167.37
165.73
157.24
144.18
128.42
111.60
95.38
81.48
71.44
66.10
65.29
67.86
72.03
76.00
78.42
78.62
76.57
72.53
66.82
59.47
50.32
39.05
25.41
9.45
-8.35
-27.13
-45.90
-63.73
-80.06
-94.75
-108.05
-120.64
-133.49
-147.87
-164.92
-184.92
-206.40
-225.77
-237.70
-236.53
-218.18
-181.71
-129.96
-68.88
-5.89
51.98
99.56
134.10
155.22
164.19
163.23
154.86
141.55
125.50
108.72
93.07
80.33
71.92
68.45
69.52
73.64
78.73
82.79
84.46
83.34
79.82
74.58
68.18
60.74
51.95
41.28
28.34
13.10
-3.94
-21.85
-39.52
-55.90
-70.30
-82.64
-93.47
-103.90
-115.44
-129.64
-147.50
-168.71
-190.90
-209.68
-219.30
-214.32
-191.48
-151.00
-96.93
-36.05
23.96
76.55
117.60
145.70
161.57
167.04
164.10
154.49
139.77
121.62
102.09
83.62
68.64
58.91
54.99
56.14
60.68
66.54
71.93
75.69
77.34
76.85
74.27
69.55
62.41
52.44
39.40
23.50
5.52
-13.29
-31.55
-48.20
-62.82
-75.70
-87.68
-99.99
-113.87
-130.49
-150.33
-172.67
-194.88
-212.51
-220.02
-212.33
-186.57
-143.34
-86.91
-24.09
37.49
91.31
133.16
161.49
176.91
181.33
177.11
166.49
151.44
133.77
115.35
98.16
84.12
74.63
70.17
70.16
73.08
77.00
80.12
81.13
79.48
75.23
68.88
61.00
51.99
41.92
30.50
17.32
2.10
-15.08
-33.61
-52.55
-70.79
-87.45
-102.11
-114.86
-126.45
-138.25
-152.00
-169.22
-190.26
-213.32
-234.19
-246.93
-245.59
-226.06
-187.71
-133.68
-70.14
-4.70
55.36
104.48
139.55
160.05
167.57
165.04
155.79
142.75
128.04
113.14
99.18
87.31
78.60
73.73
72.62
74.36
77.56
80.75
82.89
83.48
82.44
79.89
75.83
70.00
61.91
51.01
36.98
19.99
0.78
-19.39
-39.13
-57.26
-73.25
-87.30
-100.30
-113.62
-128.87
-147.46
-169.91
-195.11
-219.79
-238.80
-246.23
-237.11
-209.15
-163.62
-105.27
-41.13
21.32
75.74
118.03
146.64
162.17
166.63
162.63
152.82
139.43
124.31
109.05
95.15
83.95
76.31
72.32
71.21
71.63
72.13
71.77
70.29
68.03
65.47
62.67
59.07
53.56
44.94
32.50
16.36
-2.42
-22.18
-41.22
-58.25
-72.76
-85.04
-96.15
-107.69
-121.44
-138.85
-160.29
-184.30
-207.28
-223.93
-228.45
-216.37
-186.08
-139.57
-82.06
-20.60
37.66
87.10
124.35
148.37
159.92
160.76
153.10
139.28
121.78
103.19
86.06
72.54
63.80
59.77
59.17
60.17
61.14
61.29
60.69
59.87
59.13
57.96
55.09
48.90
38.18
22.77
3.71
-16.94
-36.89
-54.35
-68.71
-80.78
-92.50
-106.29
-124.18
-146.71
-172.31
-197.00
-215.08
-220.56
-208.87
-178.49
-131.73
-74.23
-13.48
43.29
90.68
125.95
148.75
160.29
162.29
156.53
144.67
128.56
110.42
92.80
78.05
67.86
62.61
61.36
62.31
63.49
63.57
62.20
59.85
57.19
54.31
50.46
44.08
33.72
18.69
-0.37
-21.57
-42.51
-61.16
-76.58
-89.24
-100.77
-113.45
-129.49
-150.22
-175.20
-201.68
-224.73
-238.21
-236.49
-216.25
-177.71
-124.75
-63.84
-2.27
53.53
99.20
132.69
153.96
164.27
165.52
159.81
149.14
135.53
120.92
107.21
95.98
88.18
83.82
81.99
81.33
80.57
79.08
76.87
74.37
71.80
68.75
64.15
56.56
44.81
28.54
8.53
-13.46
-35.19
-54.67
-70.86
-83.99
-95.66
-108.25
-124.24
-145.10
-170.31
-196.82
-219.38
-231.72
-228.31
-206.15
-165.87
-111.73
-50.48
10.37
64.34
107.22
137.35
155.31
163.00
162.80
156.88
146.98
134.52
120.85
107.47
95.98
87.61
82.79
80.93
80.71
80.60
79.55
77.21
73.88
69.94
65.28
59.15
50.32
37.69
20.87
0.58
-21.49
-43.13
-62.34
-78.01
-90.23
-100.31
-110.37
-122.79
-139.56
-161.36
-186.90
-212.51
-232.68
-241.18
-232.90
-205.58
-160.70
-103.26
-40.44
20.25
72.68
113.12
140.35
155.19
159.69
156.40
147.72
135.65
121.80
107.53
94.26
83.42
76.18
72.91
73.04
75.08
77.21
77.98
76.76
73.83
69.91
65.56
60.65
54.35
45.43
32.94
16.74
-2.23
-22.23
-41.28
-57.86
-71.43
-82.51
-92.48
-103.15
-116.29
-133.18
-153.96
-177.14
-199.24
-215.17
-219.29
-207.07
-176.81
-130.54
-73.67
-13.56
42.58
89.32
123.92
146.06
156.91
158.27
151.92
139.59
123.24
105.26
88.26
74.65
65.97
62.41
62.83
65.34
68.11
69.98
70.74
70.77
70.40
69.32
66.39
60.03
48.91
32.72
12.51
-9.49
-30.66
-48.84
-63.14
-74.17
-83.84
-94.76
-109.35
-128.94
-152.90
-178.24
-199.81
-211.40
-207.41
-184.72
-144.03
-89.87
-29.50
29.12
79.48
117.77
143.11
156.84
161.22
158.47
150.26
137.90
122.80
106.79
92.03
80.54
73.60
71.18
72.06
74.33
76.12
76.24
74.46
71.27
67.38
63.19
58.36
51.94
42.74
29.87
13.36
-5.79
-25.82
-44.84
-61.44
-75.19
-86.60
-96.95
-107.87
-121.04
-137.75
-158.36
-181.66
-204.40
-221.47
-226.95
-215.93
-186.32
-139.88
-82.02
-20.27
37.76
86.26
122.13
145.00
156.42
158.89
155.04
147.16
137.04
126.06
115.25
105.41
97.15
90.81
86.47
83.99
83.09
83.37
84.45
85.74
86.45
85.65
82.35
75.91
66.29
54.15
40.66
27.00
13.87
1.21
-11.66
-25.61
-41.02
-57.50
-73.89
-88.80
-101.23
-111.18
-119.68
-128.63
-140.23
-156.06
-176.17
-198.28
-217.72
-228.33
-224.21
-201.85
-161.60
-107.91
-48.00
10.28
60.56
99.19
125.24
139.71
144.50
141.74
133.53
121.98
109.22
97.19
87.28
80.17
75.76
73.42
72.44
72.34
73.01
74.54
76.88
79.50
81.28
80.77
76.80
68.92
57.72
44.57
31.05
18.30
6.58
-4.65
-16.29
-29.05
-43.02
-57.61
-71.83
-84.73
-95.75
-104.99
-113.25
-121.91
-132.67
-146.95
-165.03
-185.20
-203.45
-214.08
-211.33
-191.41
-154.18
-103.57
-46.50
9.25
57.27
93.94
118.54
132.36
137.44
135.65
128.44
117.11
103.23
88.66
75.37
64.88
57.91
54.30
53.25
53.82
55.34
57.55
60.39
63.67
66.70
68.30
67.06
61.93
52.72
40.34
26.55
13.27
1.78
-7.75
-16.26
-25.24
-35.95
-48.70
-62.75
-76.63
-88.81
-98.38
-105.42
-110.99
-116.79
-124.78
-136.59
-152.82
-172.36
-191.89
-206.12
-209.01
-195.76
-164.66
-118.18
-62.41
-5.18
46.26
87.14
115.73
132.70
139.91
139.32
132.61
121.32
107.18
92.15
78.20
66.84
58.86
54.27
52.62
53.33
55.90
59.93
64.92
70.07
74.24
76.12
74.59
69.13
60.05
48.42
35.69
23.22
11.77
1.34
-8.71
-19.26
-30.89
-43.55
-56.56
-68.88
-79.61
-88.45
-95.90
-103.23
-112.24
-124.69
-141.48
-161.78
-182.44
-198.20
-203.00
-191.93
-163.21
-119.24
-66.04
-11.31
37.82
76.74
103.86
120.00
127.19
127.48
122.42
113.06
100.40
85.71
70.63
57.00
46.50
40.16
38.16
39.89
44.19
49.76
55.37
59.99
62.73
62.84
59.78
53.45
44.17
32.63
19.60
5.63
-8.88
-23.66
-38.49
-53.05
-67.03
-80.29
-92.88
-105.12
-117.61
-131.20
-147.01
-165.94
-187.81
-210.61
-230.16
-240.83
-237.07
-215.47
-176.03
-122.53
-61.46
-0.25
54.62
98.74
130.29
149.53
158.14
158.39
152.59
142.82
130.83
118.12
105.90
95.23
86.82
81.04
77.88
77.15
78.48
81.34
84.99
88.36
90.24
89.50
85.44
78.06
67.99
56.19
43.59
30.72
17.61
3.93
-10.73
-26.56
-43.34
-60.42
-76.89
-91.96
-105.26
-117.30
-129.43
-143.58
-161.40
-183.01
-206.18
-226.29
-237.33
-233.74
-212.27
-173.05
-119.62
-57.91
5.31
63.73
112.53
148.82
171.64
181.84
181.57
173.72
161.23
146.53
131.37
116.88
103.91
93.18
85.26
80.49
78.83
79.88
82.93
87.05
91.16
94.10
94.75
92.26
86.23
76.85
64.85
51.34
37.38
23.71
10.49
-2.62
-16.26
-30.98
-46.92
-63.55
-79.91
-94.87
-107.72
-118.61
-128.82
-140.46
-155.64
-175.28
-198.01
-219.82
-234.85
-236.99
-221.81
-188.08
-138.21
-77.60
-13.29
47.69
99.60
138.80
163.97
175.86
176.63
169.24
156.63
141.31
125.21
109.73
95.99
84.87
76.96
72.47
71.15
72.42
75.47
79.32
82.91
85.19
85.20
82.22
76.03
66.89
55.51
42.75
29.33
15.58
1.41
-13.40
-29.00
-45.17
-61.34
-76.72
-90.71
-103.11
-114.30
-125.28
-137.57
-152.77
-171.72
-193.63
-215.36
-231.74
-236.73
-225.28
-195.17
-147.88
-88.46
-24.06
37.82
91.00
131.55
158.08
171.41
173.79
168.10
157.16
143.19
127.78
112.08
97.14
84.13
74.16
68.08
66.10
67.81
72.17
77.76
83.11
86.88
88.09
86.21
81.19
73.41
63.51
52.15
39.83
26.83
13.19
-1.12
-16.05
-31.31
-46.43
-60.75
-73.76
-85.22
-95.35
-105.03
-115.67
-128.98
-146.09
-166.57
-187.67
-204.30
-210.13
-199.67
-170.37
-123.88
-65.88
-4.39
52.65
99.39
133.09
153.84
163.45
164.20
158.15
146.88
131.78
114.44
96.70
80.49
67.36
58.08
52.57
50.16
50.08
51.69
54.58
58.30
61.99
64.44
64.31
60.73
53.45
42.91
29.91
15.23
-0.55
-17.02
-33.78
-50.38
-66.36
-81.36
-95.16
-107.79
-119.50
-131.00
-143.58
-158.87
-178.16
-201.25
-225.51
-245.90
-256.13
-250.58
-226.26
-183.88
-127.60
-63.93
0.01
57.90
105.17
139.33
159.99
168.48
167.27
159.33
147.38
133.50
119.11
105.17
92.62
82.40
75.39
72.00
72.01
74.48
78.03
81.17
82.70
81.98
78.92
73.76
66.76
57.98
47.17
34.02
18.49
1.04
-17.41
-35.74
-52.98
-68.61
-82.64
-95.52
-108.00
-121.13
-136.20
-154.39
-175.96
-199.44
-221.11
-235.49
-236.76
-220.70
