1628954201.00
64.000000
-0.00
-0.00
-0.00
-0.00
-0.00
-0.00
-0.00
-0.00
-0.00
-0.00
0.00
0.01
0.01
-0.00
-0.03
-0.05
-0.05
0.00
0.13
0.36
0.66
1.01
1.37
1.72
2.06
2.40
2.79
3.24
3.80
4.42
5.06
5.66
6.20
6.68
7.15
7.68
8.31
9.14
10.09
11.04
11.88
12.56
13.14
13.76
14.65
15.96
17.91
20.32
22.90
25.38
27.58
29.57
31.68
34.32
37.81
42.54
48.15
54.10
59.83
64.97
69.58
74.14
79.34
85.71
93.76
103.00
112.62
121.73
129.77
136.75
143.30
150.75
157.77
166.64
177.95
191.79
206.97
220.57
228.25
225.36
208.53
176.87
132.76
80.05
23.07
-34.94
-92.44
-149.16
-205.23
-260.37
-313.74
-363.87
-409.83
-450.91
-486.50
-515.74
-537.23
-549.22
-549.96
-538.37
-514.21
-478.67
-433.88
-382.45
-327.02
-269.84
-212.63
-156.66
-102.95
-52.37
-5.90
35.58
71.42
101.35
125.50
144.39
158.72
169.19
176.40
180.75
182.50
181.91
179.26
174.92
169.31
162.83
155.82
148.49
140.96
133.29
125.53
117.74
110.03
102.48
95.16
88.09
81.25
74.60
68.16
61.94
56.02
50.48
45.39
40.72
36.38
32.26
28.24
24.26
20.40
16.81
13.67
11.10
9.05
7.34
5.69
3.84
1.71
-0.59
-2.75
-4.42
-5.40
-5.73
-5.76
-5.98
-6.80
-8.36
-10.44
-12.54
-14.12
-14.86
-14.79
-14.30
-13.91
-14.09
-15.12
-17.17
-20.22
-23.89
-27.24
-28.76
-26.77
-20.17
-9.22
4.27
17.48
27.73
33.57
35.20
34.12
32.10
30.32
29.04
27.87
26.40
24.60
22.84
21.49
20.64
19.87
18.58
16.27
12.87
8.86
5.05
2.25
0.90
0.88
1.58
2.15
1.96
0.86
-0.73
-2.13
-2.74
-2.35
-1.24
-0.01
0.73
0.60
-0.41
-1.95
-3.44
-4.08
-3.15
-0.09
5.24
12.43
20.58
28.43
34.76
38.67
39.85
38.49
35.20
30.69
25.54
20.17
14.73
9.37
4.11
-0.84
-5.14
-8.49
-10.73
-11.96
-12.47
-12.64
-12.80
-13.12
-13.63
-14.26
-14.98
-15.74
-16.53
-17.30
-17.99
-18.48
-18.67
-18.46
-17.85
-16.89
-15.70
-14.38
-12.97
-11.47
-9.92
-8.45
-7.34
-6.84
-7.15
-8.22
-9.72
-11.01
-11.34
-10.05
-6.70
-1.33
5.56
12.99
19.77
24.78
27.37
27.49
25.65
22.67
19.31
16.08
13.13
10.47
8.13
6.24
5.01
4.67
5.33
6.95
9.32
12.14
15.07
17.75
19.83
21.00
20.97
19.66
17.07
13.42
9.09
4.49
-0.06
-4.37
-8.38
-12.14
-15.68
-18.95
-21.89
-24.40
-26.54
-28.45
-30.40
-32.67
-35.53
-39.11
-43.32
-47.73
-51.48
-53.42
-52.33
-47.40
-38.51
-26.43
-12.56
1.46
14.22
24.87
33.03
38.66
41.78
42.44
40.70
36.90
31.68
26.01
20.99
17.51
16.06
16.58
18.59
21.32
23.99
25.97
26.88
26.63
25.28
23.00
19.91
16.11
11.62
6.52
0.96
-4.81
-10.42
-15.58
-20.05
-23.77
-26.91
-29.73
-32.61
-35.96
-40.08
-45.12
-50.92
-56.89
-62.01
-65.03
-64.70
-60.16
-51.20
-38.46
-23.29
-7.41
7.48
20.12
29.80
36.35
39.94
40.86
39.47
36.26
31.86
27.13
22.96
20.08
18.91
19.41
21.20
23.73
26.42
28.84
30.64
31.56
31.34
29.78
26.74
22.33
16.86
10.84
4.81
-0.82
-5.88
-10.48
-14.85
-19.24
-23.79
-28.51
-33.26
-37.89
-42.22
-46.18
-49.90
-53.71
-58.14
-63.76
-70.94
-79.50
-88.51
-96.38
-101.10
-100.87
-94.64
-82.46
-65.54
-45.86
-25.72
-7.08
8.66
20.80
29.20
34.13
36.04
35.57
33.44
30.51
27.65
25.65
25.05
26.07
28.57
32.11
36.06
39.81
42.86
44.98
46.08
46.21
45.37
43.49
40.46
36.28
31.19
25.67
20.31
15.58
11.67
8.36
5.19
1.74
-2.20
-6.50
-10.78
-14.68
-18.06
-21.09
-24.28
-28.31
-33.83
-41.20
-50.29
-60.28
-69.69
-76.55
-78.91
-75.32
-65.40
-49.90
-30.66
-9.98
9.81
26.96
40.43
49.90
55.57
57.93
57.58
55.19
51.52
47.39
43.63
41.00
39.96
40.58
42.57
45.41
48.51
51.43
53.87
55.61
56.39
55.85
53.67
49.67
44.04
37.31
30.18
23.33
17.19
11.81
6.97
2.26
-2.63
-7.81
-13.14
-18.31
-23.01
-27.10
-30.71
-34.24
-38.28
-43.43
-50.12
-58.36
-67.55
-76.42
-83.17
-85.90
-83.07
-74.02
-59.26
-40.28
-19.27
1.50
20.10
35.26
46.35
53.31
56.39
56.10
53.08
48.24
42.68
37.67
34.28
33.22
34.50
37.53
41.35
45.04
47.97
49.94
51.01
51.19
50.34
48.18
44.49
39.31
33.03
26.35
19.96
14.30
9.40
4.94
0.46
-4.39
-9.66
-15.09
-20.28
-24.90
-28.84
-32.28
-35.61
-39.35
-44.06
-50.22
-58.04
-67.23
-76.77
-84.91
-89.52
-88.67
-81.30
-67.60
-49.07
-28.03
-6.96
12.09
27.88
39.92
48.21
53.00
54.57
53.36
49.99
45.37
40.61
36.80
34.73
34.68
36.35
39.11
42.22
45.09
47.43
49.15
50.18
50.37
49.44
47.09
43.14
37.72
31.27
24.46
17.93
12.16
7.31
3.20
-0.57
-4.42
-8.65
-13.27
-18.05
-22.64
-26.71
-30.14
-33.14
-36.23
-40.11
-45.44
-52.56
-61.19
-70.29
-78.21
-82.98
-82.86
-76.83
-64.98
-48.48
-29.28
-9.60
8.56
23.80
35.41
43.24
47.50
48.54
46.86
43.09
38.10
32.91
28.55
25.85
25.18
26.38
28.90
31.98
34.97
37.45
39.23
40.24
40.39
39.51
37.37
33.88
29.13
23.44
17.37
11.47
6.14
1.51
-2.60
-6.53
-10.62
-15.02
-19.62
-24.10
-28.10
-31.40
-34.09
-36.58
-39.47
-43.39
-48.82
-55.93
-64.51
-73.78
-82.39
-88.55
-90.42
-86.62
-76.73
-61.53
-42.85
-23.01
-4.19
12.01
24.80
34.03
39.90
42.78
43.06
41.23
37.92
33.88
29.91
26.75
24.91
24.59
25.72
27.99
30.98
34.30
37.54
40.33
42.23
42.78
41.56
38.38
33.38
27.11
20.36
13.92
8.36
3.84
0.07
-3.49
-7.36
-11.82
-16.79
-21.87
-26.59
-30.60
-33.93
-36.93
-40.23
-44.52
-50.30
-57.69
-66.26
-74.93
-82.01
-85.56
-83.85
-75.94
-62.09
-43.76
-23.25
-2.99
15.05
29.72
40.62
47.85
51.66
52.32
50.19
45.89
40.35
34.68
29.99
27.04
26.12
27.05
29.33
32.40
35.69
38.80
41.33
42.94
43.27
42.00
38.96
34.26
28.28
21.59
14.85
8.51
2.76
-2.60
-7.94
-13.57
-19.56
-25.65
-31.38
-36.32
-40.34
-43.68
-46.92
-50.77
-55.92
-62.80
-71.33
-80.78
-89.62
-95.80
-97.19
-92.28
-80.79
-63.87
-43.80
-23.23
-4.47
11.01
22.63
30.42
34.65
35.61
33.67
29.37
23.55
17.29
11.77
7.94
6.38
7.25
10.20
14.61
19.62
24.40
28.31
30.90
32.00
31.65
29.95
27.03
23.00
17.94
11.99
5.36
-1.62
-8.59
-15.15
-20.97
-25.91
-30.05
-33.71
-37.41
-41.72
-47.18
-54.07
-62.23
-70.88
-78.61
-83.48
-83.53
-77.38
-64.74
-46.69
-25.40
-3.57
16.34
32.67
44.68
52.41
56.23
56.67
54.22
49.43
43.04
35.99
29.33
24.08
20.96
20.24
21.72
24.76
28.55
32.28
35.29
37.14
37.57
36.47
33.81
29.76
24.58
18.67
12.38
5.95
-0.61
-7.34
-14.21
-21.03
-27.43
-33.05
-37.77
-41.81
-45.70
-50.19
-55.94
-63.37
-72.46
-82.46
-91.97
-98.93
-101.16
-96.91
-85.55
-67.89
-46.01
-22.68
-0.54
18.48
33.46
44.29
51.32
54.96
55.59
53.63
49.69
44.65
39.59
35.50
33.13
32.79
34.37
37.50
41.65
46.21
50.55
54.02
56.00
56.01
53.85
49.62
43.76
36.89
29.67
22.61
16.00
9.79
3.77
-2.35
-8.69
-15.14
-21.34
-26.90
-31.62
-35.65
-39.44
-43.66
-48.95
-55.72
-63.91
-72.79
-80.93
-86.29
-86.76
-80.70
-67.68
-48.65
-25.76
-1.77
20.80
40.10
55.21
65.91
72.40
75.03
74.30
70.87
65.71
59.99
54.91
51.47
50.18
50.94
53.18
56.10
58.95
61.31
63.06
64.21
64.67
64.08
61.98
58.00
52.16
44.92
37.07
29.45
22.57
16.48
10.85
5.14
-1.05
-7.80
-14.80
-21.47
-27.28
-31.96
-35.62
-38.81
-42.33
-47.02
-53.56
-62.22
-72.53
-83.20
-92.17
-96.98
-95.50
-86.66
-70.89
-50.09
-27.07
-4.67
14.93
30.59
42.07
49.63
53.60
54.25
51.80
46.69
39.70
31.95
24.75
19.28
16.34
16.15
18.35
22.11
26.41
30.29
33.01
34.19
33.74
31.75
28.39
23.85
18.34
12.10
5.37
-1.58
-8.51
-15.22
-21.51
-27.22
-32.19
-36.37
-39.87
-42.95
-46.07
-49.81
-54.76
-61.30
-69.28
-77.77
-85.01
-88.75
-86.89
-78.25
-63.09
-43.15
-21.14
0.12
18.44
32.67
42.61
48.60
51.13
50.53
47.17
41.60
34.75
27.87
22.27
18.94
18.28
20.00
23.37
27.45
31.43
34.70
36.86
37.64
36.90
34.58
30.82
25.86
20.01
13.54
6.62
-0.59
-7.89
-15.02
-21.67
-27.64
-32.93
-37.73
-42.40
-47.39
-53.14
-60.01
-68.17
-77.25
-86.24
-93.41
-96.66
-94.15
-84.98
-69.58
-49.72
-27.92
-6.73
11.90
26.95
38.19
45.94
50.64
52.74
52.64
50.80
47.82
44.43
41.35
39.19
38.31
38.72
40.24
42.52
45.20
47.91
50.21
51.63
51.63
49.80
45.96
40.33
33.49
26.17
19.00
12.32
6.08
-0.05
-6.38
-13.02
-19.73
-26.07
-31.58
-36.13
-39.96
-43.73
-48.24
-54.20
-61.96
-71.24
-81.09
-89.83
-95.38
-95.68
-89.38
-76.28
-57.57
-35.52
-12.89
7.89
25.23
38.54
48.00
54.15
57.56
58.68
57.91
55.71
52.75
49.79
47.60
46.77
47.52
49.68
52.76
56.08
59.02
61.14
62.18
62.08
60.81
58.41
54.89
50.34
44.93
38.92
32.66
26.46
20.64
15.40
10.86
6.96
3.52
0.27
-3.09
-6.82
-11.02
-15.65
-20.57
-25.55
-30.40
-35.04
-39.52
-44.11
-49.21
-55.29
-62.77
-71.80
-82.01
-92.29
-100.85
-105.48
-104.16
-95.75
-80.47
-59.93
-36.72
-13.59
7.24
24.50
37.83
47.43
53.64
56.82
57.27
55.46
52.14
48.26
44.85
42.75
42.38
43.70
46.26
49.42
52.52
55.10
56.92
57.94
58.18
57.59
56.01
53.22
49.09
43.68
37.32
30.50
23.78
17.64
12.34
7.87
3.96
0.20
-3.85
-8.41
-13.44
-18.60
-23.45
-27.62
-31.09
-34.18
-37.47
-41.59
-47.10
-54.33
-63.28
-73.52
-84.02
-93.11
-98.72
-98.92
-92.52
-79.61
-61.60
-40.85
-19.94
-1.03
14.53
26.23
34.11
38.50
39.77
38.34
34.76
29.81
24.49
19.88
16.90
16.05
17.32
20.20
23.94
27.79
31.26
34.04
35.93
36.66
35.91
33.40
29.16
23.57
17.33
11.16
5.52
0.46
-4.28
-9.06
-14.07
-19.22
-24.20
-28.68
-32.48
-35.72
-38.74
-42.06
-46.20
-51.63
-58.56
-66.76
-75.41
-83.04
-87.78
-87.84
-82.11
-70.59
-54.51
-35.93
-17.15
-0.07
14.16
25.15
32.94
37.77
39.86
39.50
37.14
33.50
29.49
26.10
24.11
23.96
25.58
28.53
32.10
35.58
38.42
40.29
41.02
40.52
38.71
35.49
30.95
25.43
19.49
13.73
8.57
4.01
-0.30
-4.79
-9.76
-15.13
-20.50
-25.36
-29.35
-32.44
-35.03
-37.78
-41.51
-46.92
-54.36
-63.57
-73.52
-82.41
-88.12
-88.71
-83.10
-71.42
-55.02
-36.04
-16.78
0.92
15.92
27.80
36.58
42.49
45.80
46.83
46.03
44.03
41.61
39.57
38.58
38.99
40.79
43.63
46.98
50.27
53.08
55.11
56.26
56.48
55.70
53.83
50.80
46.65
41.60
36.05
30.46
25.23
20.61
16.62
13.11
9.78
6.31
2.42
-1.98
-6.79
-11.70
-16.32
-20.42
-24.01
-27.46
-31.39
-36.43
-43.04
-51.32
-60.79
-70.41
-78.60
-83.58
-83.68
-77.92
-66.31
-49.99
-30.92
-11.34
6.77
22.14
34.21
43.04
48.93
52.27
53.41
52.74
50.78
48.20
45.77
44.18
43.90
44.96
47.06
49.68
52.27
54.46
56.04
56.89
56.88
55.83
53.56
50.04
45.51
40.37
35.06
29.93
25.14
20.74
16.75
13.20
10.10
7.32
4.59
1.63
-1.79
-5.69
-9.89
-14.17
-18.36
-22.46
-26.56
-30.85
-35.54
-40.88
-47.14
-54.45
-62.59
-70.80
-77.78
-81.88
-81.57
-76.01
-65.26
-50.44
-33.29
-15.84
0.16
13.57
23.88
31.12
35.57
37.64
37.65
36.03
33.32
30.26
27.68
26.29
26.44
28.07
30.71
33.73
36.53
38.71
40.10
40.67
40.42
39.29
37.23
34.24
30.48
26.27
22.01
18.02
14.45
11.25
8.29
5.45
2.73
0.17
-2.18
-4.43
-6.80
-9.53
-12.74
-16.36
-20.18
-23.95
-27.54
-31.00
-34.58
-38.60
-43.42
-49.26
-56.10
-63.48
-70.41
-75.50
-77.20
-74.35
-66.55
-54.43
-39.46
-23.54
-8.48
4.44
14.59
21.94
26.74
29.34
30.08
29.29
27.37
24.85
22.38
20.64
20.16
21.12
23.30
26.18
29.11
31.53
33.13
33.87
33.82
33.04
31.51
29.29
26.53
23.64
21.07
19.16
18.00
17.34
16.77
15.91
14.54
12.65
10.37
7.88
5.26
2.58
-0.08
-2.62
-4.97
-7.11
-9.24
-11.66
-14.67
-18.48
-23.02
-27.98
-32.92
-37.39
-41.17
-44.32
-47.23
-50.42
-54.44
-59.60
-65.84
-72.58
-78.71
-82.75
-83.19
-78.92
-69.68
-56.20
-40.12
-23.50
-8.24
4.39
13.90
20.46
24.57
26.80
27.56
27.16
25.95
24.30
22.66
21.46
21.02
21.45
22.70
24.58
26.82
29.14
31.24
32.91
33.95
34.25
33.69
32.19
29.71
26.33
22.37
18.26
14.57
11.67
9.60
8.06
6.54
4.60
2.10
-0.74
-3.50
-5.86
-7.77
-9.53
-11.63
-14.48
-18.26
-22.79
-27.65
-32.40
-36.71
-40.48
-43.91
-47.46
-51.68
-57.09
-63.86
-71.59
-79.22
-85.15
-87.61
-85.16
-77.23
-64.34
-48.02
-30.38
-13.54
0.90
12.15
20.15
25.31
28.20
29.26
28.82
27.18
24.71
21.99
19.68
18.36
18.38
19.75
22.17
25.16
28.24
30.98
33.07
34.30
34.48
33.52
31.41
28.28
24.40
20.11
15.75
11.56
7.69
4.18
1.08
-1.62
-3.97
-6.11
-8.30
-10.87
-14.05
-17.87
-22.13
-26.50
-30.70
-34.61
-38.37
-42.29
-46.75
-52.06
-58.51
-66.15
-74.76
-83.61
-91.39
-96.33
-96.61
-90.98
-79.28
-62.65
-43.11
-23.04
-4.45
11.42
24.10
33.58
40.06
43.69
44.69
43.42
40.48
36.69
33.01
30.29
29.18
29.96
32.54
36.44
40.94
45.31
48.93
51.46
52.68
52.51
50.87
47.77
43.36
37.99
32.18
26.45
21.20
16.62
12.66
9.13
5.75
2.21
-1.69
-6.03
-10.71
-15.51
-20.16
-24.49
-28.48
-32.29
-36.23
-40.64
-45.98
-52.70
-61.16
-71.41
-82.84
-94.05
-102.91
-107.08
-104.61
-94.68
-77.89
-56.13
-32.10
-8.53
12.38
29.37
42.03
50.64
55.78
58.12
58.32
57.01
54.85
52.56
50.73
49.86
50.18
51.68
54.14
57.21
60.48
63.57
66.17
68.00
68.80
68.35
66.45
63.03
58.18
52.18
45.50
38.74
32.42
26.90
22.21
18.07
14.07
9.76
4.93
-0.37
-5.82
-11.03
-15.67
-19.69
-23.38
-27.28
-32.07
-38.36
-46.55
-56.56
-67.67
-78.40
-86.67
-90.19
-87.17
-76.92
-60.28
-39.37
-17.06
3.95
21.76
35.49
45.10
50.94
53.45
53.06
50.28
45.90
40.89
36.31
32.99
31.40
31.61
33.32
36.09
39.37
42.65
45.43
47.30
47.92
47.08
44.73
41.00
36.19
30.73
25.06
19.44
14.00
8.66
3.29
-2.15
-7.59
-12.78
-17.47
-21.39
-24.42
-26.73
-28.77
-31.29
-35.18
-41.11
-49.24
-58.93
-68.74
-76.65
-80.59
-78.92
-70.97
-57.22
-39.30
-19.53
-0.38
16.20
29.19
38.44
44.44
47.77
48.86
47.98
45.40
41.63
37.51
33.93
31.62
30.90
31.68
33.61
36.26
39.19
42.02
44.39
45.91
46.27
45.24
42.66
38.51
32.95
26.35
19.36
12.73
7.15
2.94
-0.09
-2.53
-5.15
-8.48
-12.66
-17.39
-22.13
-26.42
-30.06
-33.21
-36.30
-39.90
-44.61
-50.86
-58.78
-67.94
-77.32
-85.25
-89.83
-89.35
-82.93
-70.76
-54.13
-35.06
-15.74
1.95
16.75
28.12
36.12
41.14
43.77
44.61
44.22
43.07
41.57
40.12
39.09
38.85
39.63
41.44
44.03
46.89
49.48
51.34
52.23
52.10
51.07
49.26
46.83
43.89
40.50
36.74
32.67
28.36
23.86
19.27
14.69
10.27
6.17
2.54
-0.57
-3.26
-5.75
-8.41
-11.63
-15.66
-20.51
-25.86
-31.26
-36.31
-40.93
-45.45
-50.52
-56.73
-64.27
-72.67
-80.73
-86.76
-89.01
-86.16
-77.70
-64.17
-47.03
-28.36
-10.26
5.57
18.14
27.16
32.80
35.44
35.56
33.71
30.61
27.12
24.12
22.24
21.74
22.46
24.03
26.02
28.06
29.93
31.44
32.45
32.77
32.25
30.75
28.14
24.35
19.50
13.90
8.07
2.55
-2.33
-6.59
-10.56
-14.66
-19.15
-23.93
-28.61
-32.76
-36.10
-38.72
-41.00
-43.53
-46.94
-51.80
-58.40
-66.70
-76.00
-84.98
-91.75
-94.36
-91.30
-82.11
-67.59
-49.65
-30.74
-13.08
1.88
13.59
22.18
28.06
31.53
32.72
31.75
29.04
25.38
21.82
19.37
18.61
19.63
22.01
25.14
28.45
31.51
34.10
36.00
36.99
36.77
35.06
31.68
26.69
20.46
13.62
6.85
0.73
-4.52
-9.07
-13.42
-18.07
-23.31
-29.06
-34.92
-40.44
-45.31
-49.59
-53.68
-58.23
-63.92
-71.32
-80.57
-91.18
-101.83
-110.47
-114.73
-112.58
-103.03
-86.56
-64.99
-40.91
-16.96
4.85
23.39
38.27
49.55
57.43
62.12
63.94
63.45
61.46
59.02
57.15
56.61
57.73
60.35
63.89
67.65
70.95
73.35
74.68
74.98
74.35
72.84
70.36
66.75
61.90
55.81
48.76
41.21
33.69
26.67
20.43
14.98
10.13
5.53
0.81
-4.34
-10.05
-16.20
-22.51
-28.62
-34.35
-39.84
-45.57
-52.30
-60.70
-71.02
-82.85
-94.94
-105.30
-111.62
-111.84
-104.64
-90.00
-69.23
-44.68
-19.18
4.76
25.36
41.80
54.01
62.31
67.14
68.90
68.09
65.37
61.70
58.15
55.71
54.99
56.05
58.48
61.58
64.60
67.01
68.48
68.94
68.39
66.80
64.05
59.97
54.44
47.58
39.74
31.55
23.71
16.81
11.17
6.69
2.97
-0.59
-4.48
-8.96
-13.95
-19.16
-24.25
-28.99
-33.36
-37.57
-41.97
-46.97
-53.03
-60.51
-69.65
-80.20
-91.27
-101.21
-107.82
-108.86
-102.80
-89.36
-69.72
-46.24
-21.75
1.13
20.62
35.86
46.79
53.79
57.33
57.94
56.18
52.83
48.87
45.37
43.30
43.19
45.07
48.44
52.52
56.50
59.78
62.04
63.24
63.46
62.73
61.01
58.17
54.10
48.90
42.87
36.51
30.36
24.86
20.23
16.41
13.19
10.22
7.17
3.74
-0.23
-4.76
-9.65
-14.63
-19.41
-23.85
-28.07
-32.44
-37.48
-43.74
-51.55
-60.89
-71.12
-80.99
-88.69
-92.21
-89.94
-81.23
-66.67
-48.02
-27.65
-7.89
9.58
23.91
35.02
43.19
48.84
52.35
54.04
54.27
53.52
52.32
51.19
50.55
50.60
51.32
52.57
54.12
55.79
57.36
58.65
59.42
59.38
58.27
55.95
52.44
47.92
42.69
37.07
31.37
25.90
20.91
16.61
13.01
9.95
7.10
4.06
0.55
-3.48
-7.88
-12.34
-16.59
-20.53
-24.27
-28.06
-32.19
-36.95
-42.61
-49.34
-57.14
-65.56
-73.58
-79.64
-81.99
-79.29
-71.10
-58.21
-42.40
-25.89
-10.67
1.97
11.54
18.15
22.13
23.85
23.60
21.73
18.76
15.38
12.37
10.35
9.66
10.25
11.82
13.91
16.13
18.24
20.09
21.55
22.42
22.42
21.26
18.76
14.98
10.25
5.14
0.26
-3.93
-7.29
-9.98
-12.44
-15.09
-18.14
-21.49
-24.74
-27.51
-29.59
-31.14
-32.68
-34.84
-38.17
-42.94
-49.03
-55.93
-62.76
-68.29
-71.16
-70.14
-64.53
-54.46
-40.99
-25.87
-11.01
2.01
12.31
19.75
24.63
27.35
28.24
27.49
25.40
22.46
19.40
17.00
15.80
15.96
17.21
19.02
20.87
22.45
23.66
24.57
25.23
25.52
25.19
23.90
21.43
17.77
13.25
8.38
3.75
-0.26
-3.56
-6.39
-9.19
-12.34
-15.99
-19.98
-23.92
-27.38
-30.11
-32.14
-33.83
-35.76
-38.51
-42.52
-47.99
-54.71
-62.08
-69.08
-74.38
-76.52
-74.31
-67.20
-55.46
-40.24
-23.30
-6.58
8.24
20.10
28.59
33.84
36.34
36.61
35.22
32.70
29.66
26.74
24.54
23.48
23.70
25.01
27.01
29.21
31.24
32.83
33.87
34.30
34.07
33.09
31.26
28.49
24.75
20.13
14.93
9.57
4.55
0.23
-3.25
-6.13
-8.81
-11.72
-15.13
-19.00
-23.08
-27.06
-30.69
-33.96
-37.09
-40.49
-44.69
-50.15
-57.12
-65.43
-74.34
-82.52
-88.26
-89.83
-86.05
-76.59
-62.26
-44.73
-26.15
-8.57
6.51
18.32
26.68
31.81
34.07
33.88
31.73
28.26
24.28
20.63
18.10
17.15
17.89
20.05
23.16
26.66
30.07
33.00
35.14
36.23
35.98
34.20
30.79
25.91
19.94
13.46
7.10
1.40
-3.33
-7.06
-10.10
-13.06
-16.53
-20.93
-26.22
-31.94
-37.37
-41.97
-45.68
-49.01
-52.86
-58.14
-65.41
-74.59
-84.89
-94.96
-103.00
-107.08
-105.55
-97.45
-82.98
-63.46
-41.20
-18.80
1.44
18.03
30.37
38.60
43.30
45.15
44.86
43.15
40.75
38.41
36.78
36.36
37.31
39.48
42.45
45.72
48.81
51.45
53.48
54.82
55.26
54.44
51.99
47.67
41.64
34.46
26.93
19.87
13.73
8.57
4.06
-0.27
-4.80
-9.69
-14.78
-19.79
-24.46
-28.68
-32.69
-36.97
-42.22
-49.13
-58.03
-68.65
-79.97
-90.22
-97.20
-98.86
-93.81
-81.86
-64.09
-42.58
-19.86
1.73
20.57
35.85
47.49
55.75
60.99
63.53
63.72
62.12
59.50
56.79
54.87
54.30
55.21
57.34
60.24
63.45
66.64
69.50
71.70
72.79
72.23
69.66
65.03
58.76
51.60
44.39
37.76
31.91
26.69
21.70
16.57
11.13
5.47
-0.19
-5.60
-10.62
-15.34
-20.00
-25.05
-30.97
-38.19
-46.86
-56.61
-66.43
-74.67
-79.37
-78.78
-71.95
-59.12
-41.66
-21.72
-1.58
16.90
32.52
44.71
53.34
58.45
60.26
59.19
55.95
51.50
46.95
43.29
41.18
40.91
42.33
45.02
48.39
51.75
54.53
56.24
56.56
55.32
52.51
48.18
42.60
36.16
29.34
22.64
16.38
10.67
5.41
0.37
-4.60
-9.51
-14.22
-18.58
-22.46
-25.95
-29.33
-33.02
-37.49
-43.02
-49.51
-56.23
-61.85
-64.69
-63.21
-56.60
-45.13
-30.14
-13.63
2.34
16.18
27.00
34.61
39.22
41.17
40.84
38.57
34.82
30.17
25.36
21.16
18.23
16.89
17.07
18.29
19.87
21.19
21.84
21.73
20.89
19.34
16.94
13.47
8.77
2.97
-3.49
-9.96
-15.75
-20.39
-23.69
-25.75
-26.92
-27.68
-28.58
-30.21
-33.03
-37.27
-42.73
-48.75
-54.29
-58.10
-59.02
-56.31
-49.86
-40.25
-28.58
-16.17
-4.21
6.45
15.41
22.55
27.88
31.38
33.06
33.05
31.68
29.55
27.35
25.69
24.90
25.01
25.79
26.97
28.25
29.47
30.46
31.06
31.01
30.02
27.82
24.30
19.54
13.81
7.50
1.00
-5.38
-11.43
-17.06
-22.24
-27.05
-31.69
-36.39
-41.35
-46.56
-51.60
-55.64
-57.63
-56.66
-52.27
-44.70
-34.80
-23.72
-12.59
-2.23
6.87
14.40
20.10
23.64
24.83
23.76
20.97
17.34
13.90
11.45
10.44
10.86
12.37
14.47
16.69
18.64
20.05
20.76
20.68
19.75
17.91
15.11
11.29
6.45
0.76
-5.46
-11.76
-17.63
-22.74
-26.96
-30.52
-33.86
-37.56
-42.18
-48.01
-54.94
-62.32
-68.99
-73.50
-74.42
-70.80
-62.41
-49.89
-34.56
-18.12
-2.21
11.84
23.25
31.66
37.12
39.83
40.11
38.36
35.09
31.01
26.99
23.90
22.35
22.52
24.05
26.24
28.33
29.79
30.43
30.36
29.75
28.62
26.85
24.20
20.50
15.78
10.31
4.57
-0.91
-5.72
-9.74
-13.19
-16.58
-20.45
-25.15
-30.61
-36.46
-42.17
-47.30
-51.79
-55.97
-60.43
-65.87
-72.82
-81.53
-91.78
-102.68
-112.70
-119.86
-122.12
-117.98
-106.97
-89.88
-68.56
-45.45
-22.90
-2.71
14.15
27.51
37.74
45.36
50.87
54.61
56.75
57.53
57.23
56.30
55.27
54.58
54.51
55.14
56.42
58.19
60.27
62.40
64.26
65.47
65.64
64.48
61.88
57.89
52.78
46.87
40.54
34.14
27.98
22.31
17.28
12.89
8.99
5.26
1.33
-3.12
-8.25
-13.97
-19.99
-25.95
-31.61
-36.94
-42.23
-47.91
-54.50
-62.47
-72.00
-82.85
-94.13
-104.24
-110.98
-112.13
-106.08
-92.49
-72.53
-48.63
-23.70
-0.37
19.68
35.75
47.93
56.65
62.34
65.40
66.26
65.47
63.70
61.65
59.99
59.14
59.31
60.46
62.39
64.73
67.06
68.99
70.22
70.60
70.07
68.63
66.29
63.00
58.71
53.47
47.48
41.07
34.73
28.88
23.80
19.50
15.73
12.06
8.08
3.50
-1.69
-7.28
-12.92
-18.29
-23.22
-27.71
-32.02
-36.51
-41.64
-47.86
-55.46
-64.38
-73.97
-82.89
-89.17
-90.72
-85.93
-74.34
-56.92
-35.90
-14.07
6.03
22.73
35.40
44.22
49.71
52.40
52.75
51.26
48.61
45.68
43.30
42.05
42.06
43.05
44.52
46.05
47.40
48.51
49.43
50.14
50.49
50.20
48.99
46.61
43.02
38.34
32.90
27.18
21.70
16.87
12.84
9.47
6.37
3.09
-0.65
-4.81
-9.12
-13.19
-16.80
-20.02
-23.20
-26.84
-31.41
-37.16
-43.94
-51.12
-57.62
-61.97
-62.75
-58.95
-50.42
-37.97
-23.24
-8.16
5.55
16.79
25.16
30.74
33.86
34.83
33.94
31.52
28.07
24.26
20.84
18.40
17.28
17.50
18.77
20.68
22.77
24.60
25.82
26.20
25.64
24.17
21.96
19.16
15.90
12.24
8.18
3.80
-0.72
-5.11
-9.08
-12.48
-15.33
-17.86
-20.40
-23.20
-26.37
-29.91
-33.75
-37.84
-42.05
-46.06
-49.19
-50.48
-48.95
-43.98
-35.66
-24.80
-12.78
-1.03
9.25
17.35
22.95
26.01
26.63
25.07
21.79
17.47
13.00
9.19
6.72
5.92
6.72
8.76
11.44
14.11
16.20
17.36
17.47
16.60
14.91
12.58
9.82
6.78
3.66
0.59
-2.38
-5.30
-8.34
-11.68
-15.43
-19.49
-23.59
-27.39
-30.56
-33.00
-34.89
-36.69
-39.03
-42.50
-47.35
-53.27
-59.39
-64.34
-66.67
-65.27
-59.65
-50.17
-37.88
-24.24
-10.78
1.20
10.84
17.74
21.90
23.60
23.28
21.45
18.62
15.29
11.97
9.16
7.27
6.55
7.01
8.42
10.37
12.37
14.01
15.00
15.16
14.41
12.71
10.18
7.04
3.60
0.12
-3.25
-6.58
-10.07
-13.88
-18.04
-22.40
-26.69
-30.67
-34.27
-37.56
-40.77
-44.21
-48.14
-52.83
-58.34
-64.43
-70.37
-74.97
-76.76
-74.43
-67.30
-55.66
-40.76
-24.44
-8.67
5.02
15.74
23.24
27.67
29.40
28.83
26.43
22.83
18.85
15.33
12.98
12.18
12.88
14.75
17.30
20.14
23.00
25.71
27.98
29.38
29.42
27.69
24.14
19.14
13.33
7.41
1.90
-2.97
-7.23
-11.02
-14.53
-17.95
-21.44
-25.15
-29.14
-33.37
-37.79
-42.44
-47.54
-53.47
-60.50
-68.55
-76.91
-84.25
-88.87
-89.21
-84.23
-73.82
-58.81
-40.80
-21.76
-3.61
12.16
24.65
33.55
38.96
41.27
41.04
38.89
35.63
32.13
29.30
27.84
28.11
30.08
33.33
37.25
41.19
44.59
47.02
48.18
47.91
46.12
42.91
38.55
33.39
27.82
22.16
16.57
11.10
5.70
0.31
-5.07
-10.40
-15.56
-20.39
-24.82
-28.90
-32.87
-37.16
-42.38
-49.01
-57.21
-66.51
-75.65
-82.77
-85.81
-83.10
-73.90
-58.75
-39.33
-18.01
2.72
20.86
35.23
45.45
51.73
54.61
54.74
52.82
49.60
45.90
42.53
40.25
39.53
40.46
42.76
45.87
49.17
52.07
54.11
55.01
54.59
52.75
49.49
44.93
39.34
33.09
26.57
20.13
13.98
8.13
2.50
-3.02
-8.47
-13.77
-18.78
-23.42
-27.78
-32.20
-37.22
-43.35
-50.87
-59.57
-68.59
-76.57
-81.76
-82.44
-77.37
-66.19
-49.65
-29.53
-8.22
11.85
28.75
41.46
49.78
54.13
55.19
53.70
50.37
46.01
41.56
38.03
36.25
36.60
38.87
42.34
46.03
49.08
50.97
51.55
50.98
49.48
47.16
44.02
40.00
35.11
29.49
23.39
17.08
10.81
4.75
-0.99
-6.28
-11.03
-15.22
-18.98
-22.58
-26.47
-31.17
-37.13
-44.61
-53.37
-62.60
-70.79
-76.02
-76.40
-70.66
-58.71
-41.70
-21.78
-1.42
17.22
32.74
44.52
52.54
57.01
58.31
56.92
53.55
49.15
44.79
41.41
39.58
39.42
40.66
42.80
45.39
48.00
50.29
51.88
52.37
51.39
48.71
44.39
38.81
32.60
26.34
20.41
14.85
9.45
3.98
-1.68
-7.40
-12.87
-17.75
-21.89
-25.37
-28.53
-31.87
-35.91
-41.18
-47.93
-56.05
-64.78
-72.70
-77.94
-78.61
-73.44
-62.20
-45.90
-26.51
-6.42
12.20
27.80
39.62
47.54
51.83
53.03
51.74
48.69
44.72
40.71
37.47
35.62
35.42
36.67
38.86
41.33
43.49
45.02
45.83
45.94
45.31
43.74
40.98
36.90
31.65
25.68
19.58
13.77
8.43
3.51
-1.17
-5.71
-10.04
-14.02
-17.51
-20.46
-23.01
-25.42
-28.15
-31.77
-36.88
-43.83
-52.54
-62.24
-71.48
-78.36
-81.00
-78.03
-69.05
-54.78
-36.97
-17.94
0.01
15.18
26.78
34.86
40.00
42.82
43.79
43.16
41.17
38.28
35.23
32.88
31.90
32.50
34.37
36.90
39.39
41.38
42.67
43.31
43.35
42.78
41.38
38.91
35.18
30.25
24.49
18.48
12.85
8.04
4.16
0.96
-2.01
-5.25
-9.08
-13.51
-18.29
-23.01
-27.29
-30.93
-34.01
-36.88
-40.14
-44.46
-50.39
-58.13
-67.22
-76.44
-83.89
-87.46
-85.45
-77.18
-63.25
-45.48
-26.27
-7.96
7.78
20.10
28.89
34.45
37.22
37.64
36.17
33.36
29.86
26.39
23.59
21.93
21.60
22.53
24.42
26.84
29.28
31.30
32.55
32.83
32.09
30.35
27.71
24.20
19.85
14.76
9.10
3.16
-2.67
-8.03
-12.74
-16.77
-20.26
-23.46
-26.64
-30.04
-33.94
-38.60
-44.17
-50.55
-57.14
-62.79
-66.01
-65.31
-59.80
-49.51
-35.53
-19.65
-3.91
10.02
21.10
28.97
33.74
35.76
35.41
33.10
29.37
24.87
20.44
16.93
14.96
14.77
16.07
18.23
20.46
22.13
22.92
22.92
22.37
21.51
20.32
18.60
16.01
12.27
7.33
1.38
-5.17
-11.73
-17.77
-22.87
-26.89
-30.04
-32.80
-35.78
-39.55
-44.45
-50.47
-57.15
-63.52
-68.17
-69.52
-66.29
-57.96
-45.11
-29.33
-12.77
2.50
15.10
24.47
30.71
34.20
35.32
34.29
31.38
27.10
22.25
17.79
14.56
13.04
13.30
15.00
17.58
20.43
23.00
24.87
25.82
25.77
24.74
22.81
20.05
16.48
12.14
7.09
1.46
-4.54
-10.63
-16.50
-21.88
-26.59
-30.61
-34.03
-37.13
-40.28
-43.95
-48.59
-54.47
-61.41
-68.63
-74.69
-77.75
-76.13
-68.87
-56.19
-39.47
-20.90
-2.79
13.01
25.45
34.26
39.67
42.10
41.99
39.75
35.90
31.20
26.53
22.80
20.66
20.33
21.57
23.87
26.64
29.39
31.85
33.79
34.96
35.02
33.64
30.62
26.10
20.48
14.35
8.27
2.59
-2.65
-7.60
-12.47
-17.40
-22.36
-27.16
-31.60
-35.64
-39.51
-43.73
-48.90
-55.46
-63.38
-71.86
-79.46
-84.33
-84.68
-79.40
-68.36
-52.60
-34.03
-14.99
2.44
16.82
27.55
34.76
38.94
40.59
40.09
37.75
33.96
29.34
24.68
20.84
18.48
17.94
19.15
21.74
25.13
28.66
31.69
33.74
34.50
33.91
31.96
28.69
24.12
18.31
11.47
4.02
-3.46
-10.33
-16.18
-20.84
-24.51
-27.62
-30.76
-34.55
-39.50
-45.91
-53.67
-62.18
-70.23
-76.26
-78.56
-75.80
-67.37
-53.69
-36.11
-16.68
2.40
19.22
32.52
41.81
47.18
49.09
48.09
44.79
39.83
34.05
28.41
23.86
21.18
20.69
22.21
25.12
28.56
31.75
34.07
35.24
35.19
34.00
31.72
28.42
24.06
18.65
12.20
4.93
-2.81
-10.52
-17.66
-23.85
-28.99
-33.36
-37.45
-41.87
-47.16
-53.62
-61.29
-69.73
-78.12
-85.14
-89.18
-88.60
-82.30
-70.11
-53.08
-33.24
-12.98
5.56
21.02
32.92
41.36
46.67
49.08
48.81
46.16
41.79
36.75
32.32
29.59
29.20
31.10
34.67
38.96
43.02
46.14
47.97
48.48
47.75
45.81
42.61
38.11
32.42
25.85
18.88
12.00
5.53
-0.39
-5.77
-10.70
-15.22
-19.46
-23.62
-28.04
-33.18
-39.48
-47.17
-56.12
-65.67
-74.54
-80.99
-83.13
-79.51
-69.64
-54.27
-35.23
-14.91
4.43
21.25
34.82
45.03
52.10
56.24
57.65
56.64
53.71
49.67
45.46
42.07
40.23
40.37
42.44
45.96
50.20
54.27
57.40
59.02
58.84
56.85
53.23
48.34
42.61
36.43
30.12
23.91
17.91
12.20
6.83
1.85
-2.77
-7.13
-11.36
-15.64
-20.17
-25.20
-31.02
-37.88
-45.71
-53.89
-61.11
-65.54
-65.42
-59.68
-48.42
-32.98
-15.50
1.76
17.03
29.31
38.30
44.06
46.78
46.67
44.09
39.70
34.48
29.58
26.04
24.53
25.18
27.63
31.17
34.93
38.08
40.00
40.38
39.21
36.76
33.40
29.41
24.98
20.11
14.80
9.14
3.36
-2.18
-7.18
-11.48
-15.17
-18.47
-21.70
-25.18
-29.17
-33.93
-39.64
-46.23
-53.13
-59.26
-63.05
-62.92
-57.85
-47.80
-33.87
-17.95
-2.11
11.98
23.39
31.84
37.49
40.62
41.47
40.31
37.60
34.05
30.60
28.12
27.22
28.06
30.31
33.34
36.48
39.17
41.07
42.03
41.97
40.83
38.53
35.07
30.56
25.35
19.89
14.73
10.27
6.65
3.75
1.17
-1.58
-4.85
-8.73
-12.96
-17.11
-20.82
-24.02
-27.05
-30.54
-35.20
-41.45
-49.25
-57.86
-65.96
-71.89
-74.02
-71.21
-63.22
-50.80
-35.52
-19.31
-3.96
9.35
20.07
28.21
33.99
37.71
39.58
39.86
38.92
37.26
35.49
34.18
33.68
34.13
35.38
37.10
38.88
40.31
41.10
41.13
40.40
39.03
37.11
34.69
31.71
28.13
23.99
19.48
14.94
10.73
7.08
4.03
1.36
-1.27
-4.16
-7.48
-11.20
-15.14
-19.07
-22.83
-26.40
-29.90
-33.63
-37.87
-42.90
-48.94
-56.02
-63.95
-72.11
-79.46
-84.58
-86.03
-82.80
-74.66
-62.37
-47.48
-31.88
-17.27
-4.83
4.90
11.91
16.42
18.72
19.11
17.94
15.71
13.05
10.71
9.31
9.30
10.66
13.06
15.89
18.48
20.31
21.17
21.15
20.52
19.53
18.32
16.82
14.85
12.22
8.88
4.98
0.77
-3.46
-7.49
-11.22
-14.68
-18.01
-21.36
-24.83
-28.47
-32.20
-35.89
-39.41
-42.76
-46.13
-49.91
-54.52
-60.37
-67.60
-75.98
-84.87
-93.19
-99.57
-102.53
-100.84
-93.82
-81.66
-65.40
-46.76
-27.71
-9.94
5.42
17.95
27.72
35.07
40.33
43.78
45.66
46.29
46.10
45.69
45.64
46.38
48.07
50.56
53.48
56.43
59.03
61.08
62.47
63.10
62.88
61.65
59.36
56.12
52.28
48.30
44.64
41.55
39.03
36.81
34.62
32.24
29.64
26.96
24.32
21.77
19.18
16.31
12.95
9.00
4.55
-0.19
-5.01
-9.80
-14.67
-19.84
-25.55
-31.85
-38.52
-45.14
-51.21
-56.46
-60.93
-65.02
-69.33
-74.54
-81.20
-89.51
-99.19
-109.29
-118.18
-123.84
-124.31
-118.37
-105.93
-88.19
-67.31
-45.72
-25.49
-7.94
6.45
17.79
26.42
32.71
36.91
39.26
40.07
39.76
38.91
38.17
38.11
39.10
41.22
44.23
47.70
51.14
54.10
56.27
57.45
57.51
56.36
53.94
50.33
45.78
40.70
35.63
31.07
27.35
24.46
22.04
19.58
16.54
12.70
8.19
3.37
-1.34
-5.74
-9.96
-14.36
-19.33
-25.01
-31.23
-37.55
-43.55
-49.00
-54.08
-59.31
-65.36
-72.83
-81.96
-92.31
-102.80
-111.69
-117.02
-117.01
-110.58
-97.70
-79.44
-57.81
-35.14
-13.60
5.31
20.94
33.35
42.95
50.19
55.33
58.53
59.99
60.14
59.68
59.39
59.96
61.68
64.44
67.80
71.25
74.35
76.83
78.59
79.55
79.58
78.46
76.03
72.31
67.56
62.29
57.07
52.37
48.38
45.02
41.99
38.97
35.68
32.01
27.96
23.69
19.41
15.31
11.51
7.97
4.45
0.54
-4.18
-10.00
-16.90
-24.54
-32.38
-39.82
-46.50
-52.38
-57.79
-63.35
-69.79
-77.67
-87.14
-97.61
-107.71
-115.45
-118.62
-115.45
-105.19
-88.40
-66.85
-43.08
-19.70
1.22
18.47
31.74
41.40
48.10
52.50
55.14
56.41
56.68
56.36
55.93
55.84
56.37
57.55
59.22
61.13
63.08
64.93
66.59
67.90
68.55
68.11
66.16
62.46
57.13
50.67
43.83
37.42
31.99
27.68
24.25
21.18
18.02
14.52
10.76
6.96
3.36
-0.00
-3.34
-7.00
-11.36
-16.57
-22.56
-29.05
-35.60
-41.85
-47.58
-52.82
-57.87
-63.28
-69.66
-77.47
-86.66
-96.43
-105.20
-110.85
-111.25
-104.90
-91.51
-72.22
-49.31
-25.63
-3.78
14.43
28.24
37.80
43.80
47.08
48.40
48.35
47.42
46.06
44.75
43.93
43.94
44.89
46.67
49.00
51.55
54.03
56.25
58.04
59.19
59.41
58.37
55.84
51.83
46.67
40.92
35.19
29.92
25.29
21.20
17.41
13.71
10.01
6.39
2.94
-0.26
-3.33
-6.53
-10.20
-14.60
-19.81
-25.63
-31.63
-37.39
-42.64
-47.42
-52.11
-57.28
-63.54
-71.31
-80.49
-90.31
-99.26
-105.24
-106.10
-100.33
-87.60
-69.04
-46.92
-23.95
-2.57
15.62
29.92
40.38
47.43
51.70
53.85
54.51
54.29
53.68
52.97
52.38
51.99
51.92
52.27
53.14
54.49
56.20
58.05
59.73
60.91
61.21
60.24
57.79
53.81
48.54
42.49
36.21
30.22
24.86
20.23
16.20
12.54
9.00
5.39
1.65
-2.18
-6.02
-9.86
-13.76
-17.85
-22.19
-26.71
-31.25
-35.65
-39.90
-44.24
-49.13
-55.16
-62.74
-71.90
-82.08
-92.04
-99.94
-103.73
-101.73
-93.21
-78.72
-60.05
-39.69
-20.11
-3.11
10.43
20.44
27.29
31.46
33.36
33.32
31.74
29.20
26.38
23.98
22.47
22.03
22.57
23.80
25.43
27.28
29.27
31.34
33.32
34.86
35.43
34.50
31.75
27.21
21.34
14.90
8.68
3.32
-0.98
-4.50
-7.82
-11.56
-16.05
-21.14
-26.33
-30.97
-34.69
-37.59
-40.20
-43.28
-47.57
-53.54
-61.18
-69.98
-78.80
-85.98
-89.63
-88.08
-80.47
-67.13
-49.51
-29.85
-10.44
6.89
21.09
31.84
39.27
43.69
45.44
44.89
42.54
39.14
35.59
32.83
31.56
32.03
33.92
36.54
39.10
41.04
42.17
42.62
42.57
41.98
40.59
38.04
34.18
29.21
23.62
18.02
12.84
8.20
3.87
-0.51
-5.27
-10.49
-15.95
-21.22
-25.82
-29.49
-32.30
-34.75
-37.56
-41.55
-47.33
-55.11
-64.54
-74.67
-83.95
-90.39
-92.03
-87.52
-76.59
-60.30
-40.78
-20.61
-2.04
13.52
25.67
34.68
41.07
45.32
47.71
48.44
47.80
46.24
44.27
42.45
41.12
40.44
40.39
40.84
41.68
42.83
44.16
45.47
46.35
46.28
44.76
41.54
36.73
30.82
24.49
18.37
12.79
7.81
3.22
-1.26
-5.87
-10.69
-15.61
-20.43
-24.91
-28.96
-32.68
-36.45
-40.86
-46.50
-53.74
-62.46
-71.91
-80.66
-86.91
-88.81
-85.03
-75.19
-60.14
-41.70
-22.25
-3.97
11.61
23.80
32.56
38.19
40.98
41.24
39.39
36.10
32.25
28.82
26.58
25.95
26.91
29.09
31.95
34.94
37.56
39.52
40.62
40.72
39.68
37.38
33.76
29.02
23.58
18.04
12.94
8.55
4.73
1.05
-3.02
-7.77
-13.18
-18.90
-24.42
-29.31
-33.37
-36.76
-39.98
-43.74
-48.80
-55.68
-64.43
-74.38
-84.12
-91.69
-95.05
-92.61
-83.73
-68.97
-50.02
-29.21
-8.97
8.80
23.09
33.71
41.10
45.88
48.60
49.66
49.38
48.13
46.38
44.69
43.59
43.41
44.19
45.73
47.64
49.50
50.95
51.80
52.00
51.60
50.56
48.79
46.06
42.18
37.11
31.11
24.69
18.48
13.02
8.60
5.19
2.41
-0.27
-3.39
-7.29
-12.01
-17.36
-22.96
-28.43
-33.52
-38.20
-42.65
-47.24
-52.55
-59.14
-67.40
-77.18
-87.53
-96.63
-102.22
-102.20
-95.39
-81.98
-63.40
-41.95
-20.07
0.20
17.51
31.21
41.18
47.66
51.07
52.05
51.32
49.69
47.95
46.76
46.51
47.27
48.82
50.79
52.79
54.59
56.14
57.43
58.39
58.74
58.11
56.20
52.92
48.50
43.39
38.05
32.78
27.69
22.73
17.81
12.97
8.33
4.14
0.55
-2.44
-5.10
-7.82
-11.06
-15.14
-20.10
-25.73
-31.65
-37.44
-42.83
-47.77
-52.49
-57.41
-63.11
-70.10
-78.57
-88.07
-97.30
-104.26
-106.71
-102.86
-92.10
-75.26
-54.41
-32.24
-11.24
6.89
21.41
32.32
40.03
44.93
47.37
47.65
46.21
43.73
41.04
38.94
38.01
38.43
40.06
42.52
45.40
48.29
50.89
52.87
53.94
53.81
52.31
49.47
45.54
40.94
36.10
31.32
26.70
22.20
17.72
13.25
8.86
4.73
0.98
-2.35
-5.42
-8.55
-12.13
-16.46
-21.62
-27.46
-33.59
-39.59
-45.14
-50.19
-55.02
-60.17
-66.33
-74.07
-83.54
-94.21
-104.70
-112.93
-116.59
-113.81
-103.78
-87.12
-65.73
-42.27
-19.36
1.00
17.76
30.73
40.22
46.78
50.90
53.03
53.64
53.26
52.44
51.72
51.48
51.89
52.93
54.46
56.35
58.45
60.63
62.75
64.56
65.74
65.94
64.82
62.19
58.10
52.86
47.04
41.28
36.13
31.87
28.36
25.23
21.98
18.28
14.08
9.63
5.29
1.32
-2.26
-5.74
-9.54
-14.06
-19.50
-25.72
-32.32
-38.79
-44.74
-50.03
-54.84
-59.64
-65.09
-71.79
-80.14
-90.03
-100.60
-110.20
-116.57
-117.42
-111.15
-97.41
-77.38
-53.40
-28.36
-4.90
15.14
30.88
42.30
49.87
54.33
56.39
56.75
56.02
54.72
53.29
52.13
51.51
51.59
52.39
53.82
55.74
58.01
60.47
62.90
64.94
66.10
65.84
63.84
60.08
54.90
48.94
42.83
37.06
31.86
27.16
22.80
18.58
14.37
10.14
5.92
1.74
-2.43
-6.71
-11.30
-16.37
-22.02
-28.11
-34.36
-40.40
-46.00
-51.21
-56.40
-62.25
-69.42
-78.31
-88.68
-99.49
-108.91
-114.66
-114.64
-107.55
-93.34
-73.33
-49.85
-25.59
-2.94
16.44
31.79
43.01
50.41
54.41
55.51
54.20
51.14
47.07
42.85
39.29
37.03
36.38
37.35
39.62
42.69
46.02
49.12
51.63
53.24
53.68
52.72
50.17
46.02
40.43
33.80
26.68
19.65
13.25
7.77
3.17
-0.90
-5.02
-9.75
-15.38
-21.86
-28.77
-35.49
-41.48
-46.50
-50.63
-54.33
-58.25
-63.15
-69.71
-78.37
-88.98
-100.58
-111.34
-118.83
-120.55
-114.76
-101.05
-80.60
-55.84
-29.77
-5.19
15.95
32.68
44.93
53.10
57.76
59.51
58.95
56.72
53.57
50.28
47.57
45.93
45.60
46.51
48.34
50.65
53.04
55.21
57.01
58.37
59.15
59.01
57.51
54.23
49.05
42.26
34.58
26.84
19.74
13.58
8.27
3.40
-1.49
-6.76
-12.49
-18.57
-24.70
-30.52
-35.80
-40.54
-45.05
-49.89
-55.72
-63.08
-72.29
-83.18
-94.91
-105.91
-114.00
-116.78
-112.39
-100.15
-80.93
-57.04
-31.48
-7.06
14.20
31.34
44.25
53.18
58.48
60.51
59.71
56.83
52.85
48.83
45.69
43.95
43.67
44.52
46.06
47.94
49.96
52.02
53.96
55.41
55.82
54.62
51.52
46.62
40.43
33.60
26.74
20.13
13.78
7.50
1.00
-5.86
-13.04
-20.25
-26.99
-32.74
-37.16
-40.32
-42.81
-45.64
-49.96
-56.67
-65.99
-77.19
-88.56
-97.71
-102.11
-99.75
-89.81
-72.92
-51.05
-26.95
-3.44
17.29
33.99
46.27
54.34
58.67
59.80
58.32
54.93
50.48
45.88
42.01
39.49
38.61
39.28
41.09
43.55
46.20
48.73
50.91
52.46
52.95
51.85
48.69
43.38
36.35
28.46
20.74
13.97
8.32
3.43
-1.45
-6.94
-13.27
-20.15
-26.92
-32.91
-37.76
-41.61
-45.07
-49.07
-54.52
-61.99
-71.39
-81.79
-91.48
-98.19
-99.67
-94.37
-81.92
-63.42
-41.07
-17.64
4.33
23.05
37.72
48.34
55.38
59.45
61.09
60.73
58.81
55.87
52.59
49.72
47.88
47.41
48.28
50.13
52.44
54.74
56.74
58.25
59.13
59.09
57.78
54.87
50.30
44.37
37.69
31.02
24.95
19.78
15.39
11.36
7.17
2.44
-2.91
-8.65
-14.32
-19.50
-23.97
-27.91
-31.82
-36.40
-42.32
-49.97
-59.21
-69.29
-78.76
-85.74
-88.29
-84.94
-75.16
-59.72
-40.46
-19.86
-0.32
16.43
29.58
39.11
45.42
48.97
50.13
49.26
46.84
43.58
40.33
37.90
36.78
37.04
38.37
40.25
42.14
43.69
44.81
45.57
46.07
46.28
45.89
44.48
41.62
37.18
31.49
25.26
19.31
14.28
10.29
7.03
3.90
0.38
-3.75
-8.37
-13.09
-17.49
-21.31
-24.53
-27.36
-30.21
-33.62
-38.21
-44.52
-52.69
-62.23
-71.78
-79.36
-82.81
-80.55
-72.14
-58.47
-41.46
-23.43
-6.42
8.24
19.96
28.70
34.61
37.92
38.85
37.71
35.05
31.61
28.25
25.71
24.36
24.18
24.84
25.92
27.09
28.27
29.51
30.82
32.07
32.92
32.92
31.67
29.02
25.05
20.14
14.81
9.65
5.15
1.57
-1.14
-3.30
-5.42
-7.96
-11.19
-15.17
-19.69
-24.39
-28.91
-32.92
-36.29
-39.12
-41.80
-44.91
-49.10
-54.76
-61.75
-69.31
-75.98
-79.99
-79.72
-74.25
-63.68
-49.16
-32.59
-15.97
-0.97
11.44
20.91
27.51
31.39
32.79
32.00
29.55
26.23
22.96
20.59
19.58
19.96
21.38
23.29
25.17
26.69
27.77
28.51
29.00
29.25
29.05
28.06
25.97
22.66
18.35
13.54
8.74
4.34
0.40
-3.24
-6.90
-10.76
-14.85
-18.95
-22.83
-26.26
-29.21
-31.81
-34.40
-37.36
-41.11
-45.99
-52.22
-59.65
-67.68
-75.18
-80.60
-82.36
-79.32
-71.23
-58.89
-43.90
-28.20
-13.49
-0.85
9.31
17.04
22.53
25.96
27.38
26.94
24.94
21.98
18.82
16.26
14.90
14.94
16.23
18.35
20.81
23.20
25.26
26.82
27.73
27.77
26.69
24.30
20.60
15.87
10.60
5.36
0.61
-3.44
-6.91
-10.16
-13.60
-17.54
-21.99
-26.71
-31.29
-35.35
-38.78
-41.80
-44.99
-49.03
-54.52
-61.64
-69.97
-78.46
-85.55
-89.51
-88.89
-82.91
-71.76
-56.54
-39.03
-21.17
-4.66
9.40
20.51
28.59
33.81
36.45
36.85
35.51
33.10
30.38
28.10
26.85
26.94
28.42
31.00
34.21
37.42
40.08
41.83
42.56
42.39
41.47
39.82
37.35
33.87
29.35
24.01
18.30
12.72
7.67
3.24
-0.75
-4.60
-8.60
-12.91
-17.45
-22.04
-26.41
-30.37
-33.98
-37.57
-41.68
-46.95
-53.87
-62.55
-72.58
-83.00
-92.31
-98.69
-100.38
-96.07
-85.45
-69.36
-49.59
-28.44
-8.05
10.05
25.12
37.04
45.95
52.03
55.43
56.36
55.24
52.71
49.65
46.92
45.24
45.03
46.32
48.80
51.93
55.09
57.77
59.64
60.48
60.14
58.56
55.69
51.62
46.62
41.05
35.39
30.01
25.15
20.85
16.96
13.13
8.92
3.95
-1.88
-8.37
-15.01
-21.22
-26.60
-31.14
-35.23
-39.56
-44.84
-51.78
-60.71
-71.48
-83.15
-94.01
-101.77
-104.16
-99.63
-87.91
-70.15
-48.64
-26.08
-4.98
12.91
26.73
36.39
42.27
45.03
45.34
43.84
41.16
37.89
34.70
32.22
30.86
30.80
31.91
33.89
36.39
39.12
41.86
44.32
46.12
46.74
45.72
42.84
38.12
31.95
24.91
17.59
10.43
3.63
-2.83
-9.05
-15.07
-20.79
-26.01
-30.54
-34.51
-38.35
-42.78
-48.58
-56.20
-65.48
-75.52
-84.66
-90.87
-92.12
-87.03
-75.27
-57.85
-36.82
-14.74
6.07
24.03
38.45
49.31
56.84
61.30
62.89
61.95
59.06
55.08
51.00
47.72
45.85
45.63
46.92
49.27
52.08
54.74
56.75
57.75
57.57
55.99
52.85
48.08
41.87
34.72
27.37
20.56
14.72
9.80
5.32
0.67
-4.65
-10.78
-17.49
-24.28
-30.60
-36.11
-40.78
-45.00
-49.52
-55.17
-62.59
-71.76
-81.79
-91.03
-97.31
-98.53
-93.24
-81.13
-63.09
-41.03
-17.42
5.32
25.34
41.56
53.72
62.04
67.00
69.11
68.93
67.10
64.44
61.80
59.94
59.31
59.89
61.36
63.21
64.90
66.11
66.72
66.76
66.29
65.28
63.50
60.64
56.42
50.79
44.04
36.76
29.56
22.91
16.93
11.40
6.00
0.43
-5.38
-11.28
-17.02
-22.34
-27.11
-31.32
-35.27
-39.43
-44.43
-50.90
-59.25
-69.34
-80.35
-90.72
-98.43
-101.41
-98.18
-88.27
-72.47
-52.61
-31.07
-10.14
8.48
23.84
35.63
43.93
48.99
51.11
50.68
48.34
44.86
41.14
37.98
35.95
35.26
35.84
37.37
39.50
41.87
44.18
46.16
47.48
47.72
46.46
43.40
38.56
32.31
25.35
18.47
12.28
7.01
2.46
-1.77
-6.12
-10.83
-15.91
-21.13
-26.19
-30.77
-34.73
-38.17
-41.51
-45.45
-50.74
-57.86
-66.62
-75.95
-84.01
-88.57
-87.73
-80.49
-67.12
-49.14
-28.77
-8.40
10.07
25.45
37.34
45.76
50.99
53.37
53.30
51.32
48.21
44.84
42.06
40.43
40.16
41.06
42.76
44.78
46.73
48.29
49.27
49.58
49.17
48.01
46.04
43.17
39.30
34.44
28.75
22.60
16.42
10.64
5.52
1.08
-2.83
-6.48
-10.15
-14.04
-18.26
-22.78
-27.47
-32.16
-36.67
-40.96
-45.15
-49.58
-54.72
-61.07
-68.91
-78.04
-87.61
-96.10
-101.53
-101.98
-96.13
-83.81
-66.10
-45.06
-23.21
-2.82
14.54
28.16
38.10
44.81
48.86
50.77
50.96
49.86
47.93
45.76
43.90
42.81
42.73
43.71
45.54
47.92
50.46
52.74
54.34
54.94
54.28
52.35
49.28
45.35
40.90
36.16
31.27
26.32
21.37
16.53
11.94
7.72
3.85
0.22
-3.40
-7.21
-11.33
-15.73
-20.25
-24.70
-28.91
-32.87
-36.70
-40.65
-45.02
-50.12
-56.22
-63.42
-71.57
-80.02
-87.62
-92.72
-93.60
-89.00
-78.65
-63.45
-45.28
-26.40
-8.81
6.20
18.10
26.90
32.84
36.20
37.24
36.31
33.91
30.68
27.37
24.70
23.24
23.27
24.73
27.22
30.12
32.82
34.87
36.08
36.43
35.94
34.62
32.39
29.23
25.26
20.73
15.98
11.33
6.97
2.97
-0.69
-4.12
-7.47
-10.93
-14.71
-18.90
-23.41
-27.96
-32.19
-35.80
-38.75
-41.31
-44.04
-47.65
-52.76
-59.65
-68.08
-77.16
-85.45
-91.14
-92.47
-88.18
-77.95
-62.52
-43.64
-23.61
-4.70
11.39
23.79
32.50
38.03
41.02
41.98
41.26
39.12
35.97
32.45
29.28
27.19
26.58
27.46
29.50
32.15
34.88
37.28
39.12
40.29
40.71
40.25
38.72
35.98
32.07
27.19
21.79
16.31
11.15
6.53
2.49
-1.11
-4.51
-8.06
-12.05
-16.64
-21.78
-27.16
-32.36
-36.96
-40.77
-43.96
-47.00
-50.56
-55.32
-61.82
-70.20
-80.06
-90.29
-99.16
-104.57
-104.56
-97.94
-84.66
-65.92
-43.89
-21.10
0.08
17.96
31.71
41.25
47.00
49.62
49.84
48.28
45.53
42.21
38.91
36.25
34.69
34.43
35.41
37.34
39.77
42.30
44.58
46.40
47.59
48.00
47.43
45.69
42.59
38.14
32.55
26.28
19.91
14.01
8.94
4.72
1.04
-2.57
-6.58
-11.21
-16.38
-21.80
-27.11
-32.03
-36.50
-40.62
-44.61
-48.80
-53.60
-59.49
-66.86
-75.73
-85.46
-94.58
-100.95
-102.30
-96.96
-84.43
-65.66
-42.84
-18.70
4.17
23.88
39.48
50.72
57.82
61.20
61.31
58.73
54.29
49.02
44.03
40.20
38.01
37.47
38.22
39.80
41.82
44.05
46.38
48.67
50.66
51.88
51.81
50.05
46.44
41.22
34.92
28.20
21.64
15.57
9.99
4.63
-0.83
-6.63
-12.73
-18.84
-24.56
-29.55
-33.69
-37.22
-40.67
-44.74
-50.09
-57.17
-66.03
-76.07
-86.03
-93.99
-97.76
-95.46
-86.18
-70.42
-49.97
-27.45
-5.52
13.83
29.53
41.32
49.36
53.90
55.17
53.45
49.24
43.35
36.81
30.65
25.82
22.91
22.18
23.52
26.51
30.56
34.94
38.95
41.96
43.45
43.07
40.70
36.48
30.85
24.38
17.64
10.96
4.40
-2.17
-8.89
-15.71
-22.44
-28.76
-34.48
-39.65
-44.60
-49.84
-55.90
-63.12
-71.44
-80.16
-87.96
-92.98
-93.31
-87.57
-75.37
-57.58
-36.16
-13.57
7.82
26.26
40.75
51.08
57.39
60.05
59.49
56.21
50.90
44.50
38.18
33.08
30.08
29.51
31.07
34.00
37.32
40.20
42.09
42.80
42.34
40.77
38.18
34.67
30.37
25.43
19.97
13.98
7.37
0.07
-7.88
-16.20
-24.43
-32.10
-38.89
-44.75
-49.96
-55.12
-60.96
-68.12
-76.74
-86.14
-94.76
-100.35
-100.62
-93.92
-79.94
-59.84
-36.01
-11.35
11.52
30.74
45.44
55.57
61.52
63.84
63.15
60.14
55.63
50.58
45.91
42.36
40.35
39.99
41.11
43.49
46.73
50.32
53.64
55.97
56.71
55.57
52.64
48.30
43.07
37.35
31.37
25.14
18.57
11.63
4.39
-2.90
-9.92
-16.36
-22.07
-27.09
-31.75
-36.62
-42.37
-49.58
-58.49
-68.71
-79.04
-87.54
-91.93
-90.21
-81.35
-65.70
-45.02
-21.91
0.87
21.13
37.52
49.54
57.34
61.36
62.19
60.52
57.12
52.82
48.53
45.03
42.88
42.33
43.21
45.06
47.25
49.28
50.84
51.84
52.28
52.02
50.78
48.20
44.07
38.53
32.08
25.39
19.00
13.14
7.68
2.23
-3.54
-9.74
-16.19
-22.48
-28.18
-33.05
-37.19
-41.04
-45.30
-50.65
-57.60
-66.17
-75.73
-84.91
-91.83
-94.38
-90.93
-80.81
-64.69
-44.52
-22.93
-2.53
14.77
28.10
37.47
43.34
46.20
46.47
44.56
41.02
36.62
32.24
28.67
26.39
25.51
25.91
27.32
29.47
32.10
34.89
37.46
39.33
39.99
39.05
36.32
31.93
26.29
20.09
14.04
8.64
3.98
-0.28
-4.69
-9.70
-15.41
-21.46
-27.19
-32.00
-35.62
-38.33
-40.86
-44.21
-49.31
-56.69
-66.17
-76.70
-86.40
-92.88
-93.88
-87.98
-75.12
-56.68
-35.16
-13.33
6.48
22.83
35.24
43.87
49.11
51.33
50.94
48.45
44.66
40.54
37.12
35.12
34.84
36.13
38.46
41.20
43.76
45.77
47.06
47.63
47.49
46.63
44.90
42.10
38.11
32.96
26.98
20.71
14.77
9.61
5.35
1.74
-1.79
-5.75
-10.47
-15.86
-21.50
-26.80
-31.31
-34.92
-37.98
-41.21
-45.46
-51.51
-59.70
-69.67
-80.27
-89.67
-95.64
-96.14
-90.00
-77.23
-59.21
-38.25
-16.93
2.58
18.97
31.87
41.49
48.28
52.54
54.45
54.14
51.98
48.68
45.13
42.23
40.62
40.54
41.90
44.29
47.25
50.21
52.68
54.22
54.54
53.53
51.29
48.05
44.12
39.76
35.21
30.64
26.19
22.00
18.16
14.64
11.32
7.97
4.36
0.35
-4.08
-8.85
-13.77
-18.67
-23.44
-28.04
-32.54
-37.09
-41.92
-47.34
-53.73
-61.39
-70.45
-80.47
-90.26
-98.02
-101.63
-99.45
-90.78
-76.32
-57.84
-37.75
-18.31
-1.14
12.93
23.66
31.19
35.73
37.52
36.96
34.64
31.40
28.17
25.76
24.70
25.09
26.66
28.95
31.46
33.87
35.99
37.75
39.03
39.66
39.32
37.74
34.69
30.15
24.39
17.86
11.24
5.13
-0.06
-4.24
-7.70
-10.91
-14.31
-18.10
-22.16
-26.15
-29.75
-32.87
-35.73
-38.82
-42.68
-47.79
-54.41
-62.54
-71.83
-81.42
-89.91
-95.51
-96.43
-91.46
-80.48
-64.54
-45.64
-26.08
-7.81
7.91
20.56
30.15
36.82
40.81
42.38
41.93
40.14
37.80
35.72
34.53
34.54
35.73
37.86
40.55
43.44
46.19
48.55
50.26
51.10
50.87
49.45
46.82
43.16
38.74
33.97
29.23
24.77
20.64
16.71
12.72
8.49
4.07
-0.34
-4.44
-8.07
-11.37
-14.73
-18.60
-23.25
-28.59
-34.23
-39.70
-44.65
-49.10
-53.41
-58.22
-64.22
-71.94
-81.44
-92.13
-102.66
-111.02
-114.98
-112.70
-103.28
-87.19
-66.21
-42.92
-19.98
0.46
17.16
29.77
38.59
44.25
47.45
48.84
49.05
48.67
48.22
48.13
48.66
49.93
51.88
54.37
57.14
59.91
62.40
64.37
65.69
66.28
66.06
64.91
62.69
59.33
54.93
49.82
44.52
39.53
35.20
31.55
28.35
25.19
21.69
17.70
13.32
8.91
4.85
1.35
-1.74
-4.93
-8.84
-13.94
-20.24
-27.33
-34.50
-41.14
-47.00
-52.32
-57.71
-63.88
-71.41
-80.49
-90.83
-101.51
-110.95
-117.12
-117.95
-111.92
-98.66
-79.21
-55.79
-31.21
-8.09
11.76
27.50
39.13
47.10
51.94
54.18
54.34
53.00
50.86
48.63
46.96
46.27
46.75
48.33
50.73
53.58
56.41
58.79
60.35
60.82
60.10
58.19
55.22
51.31
46.60
41.26
35.47
29.44
23.44
17.75
12.57
8.01
4.03
0.48
-2.89
-6.35
-10.07
-14.11
-18.41
-22.82
-27.20
-31.47
-35.69
-40.01
-44.70
-50.10
-56.62
-64.62
-74.15
-84.72
-95.00
-102.91
-106.00
-102.33
-91.13
-73.25
-50.94
-27.17
-4.71
14.51
29.65
40.76
48.25
52.64
54.34
53.72
51.33
47.91
44.37
41.59
40.21
40.45
42.10
44.65
47.47
50.04
52.05
53.44
54.22
54.36
53.69
51.97
48.91
44.42
38.64
32.00
25.08
18.47
12.59
7.59
3.36
-0.44
-4.20
-8.28
-12.83
-17.80
-22.92
-27.85
-32.34
-36.32
-40.01
-43.87
-48.49
-54.47
-62.19
-71.57
-81.82
-91.35
-97.99
-99.51
-94.30
-81.97
-63.65
-41.63
-18.74
2.50
20.40
34.27
44.20
50.60
53.96
54.72
53.37
50.54
47.01
43.66
41.18
39.96
39.98
40.97
42.51
44.30
46.16
48.00
49.63
50.75
50.88
49.51
46.29
41.21
34.66
27.34
20.06
13.52
8.00
3.34
-0.95
-5.44
-10.48
-16.01
-21.64
-26.82
-31.18
-34.73
-37.90
-41.39
-45.98
-52.33
-60.64
-70.46
-80.54
-88.95
-93.50
-92.30
-84.55
-70.78
-52.76
-32.94
-13.74
3.05
16.55
26.62
33.59
37.82
39.60
39.14
36.75
32.95
28.54
24.44
21.49
20.26
20.87
23.06
26.24
29.67
32.63
34.55
35.10
34.16
31.83
28.30
23.78
18.43
12.39
5.88
-0.80
-7.28
-13.25
-18.55
-23.23
-27.47
-31.52
-35.67
-40.20
-45.45
-51.75
-59.14
-67.25
-75.07
-81.05
-83.39
-80.66
-72.30
-58.89
-41.99
-23.73
-6.17
9.22
21.70
31.15
37.74
41.65
42.98
41.90
38.79
34.43
29.86
26.14
23.99
23.64
24.76
26.68
28.66
30.13
30.81
30.65
29.70
28.01
25.50
22.00
17.34
11.47
4.54
-3.03
-10.66
-17.76
-23.94
-29.13
-33.60
-37.85
-42.51
-48.13
-54.99
-63.03
-71.69
-79.88
-86.12
-88.79
-86.57
-78.88
-66.13
-49.69
-31.50
-13.55
2.62
16.17
26.87
34.85
40.31
43.37
44.18
43.07
40.67
37.86
35.58
34.55
35.02
36.75
39.18
41.66
43.65
44.86
45.22
44.71
43.34
41.01
37.57
32.90
27.07
20.40
13.48
6.97
1.34
-3.32
-7.30
-11.21
-15.68
-21.22
-28.04
-36.06
-44.91
-53.85
-61.77
-67.21
-68.69
-65.08
-56.07
-42.37
-25.56
-7.65
9.49
24.55
36.90
46.48
53.50
58.19
60.71
61.16
59.82
57.25
54.23
51.61
50.08
49.91
50.91
52.60
54.35
55.67
56.21
55.80
54.34
51.74
47.96
43.06
37.21
30.76
24.07
17.44
11.04
4.88
-1.11
-7.03
-12.89
-18.62
-24.09
-29.22
-34.06
-38.87
-44.12
-50.34
-57.95
-67.02
-77.10
-87.09
-95.41
-100.24
-100.05
-94.07
-82.61
-67.01
-49.32
-31.70
-15.90
-2.95
6.79
13.48
17.43
18.97
18.44
16.35
13.43
10.60
8.81
8.79
10.91
15.10
20.97
27.88
35.19
42.30
48.74
54.17
58.37
61.14
62.37
61.97
59.99
56.65
52.30
47.46
42.58
37.97
33.62
29.26
24.51
19.05
12.84
6.18
-0.43
-6.51
-11.87
-16.73
-21.67
-27.39
-34.51
-43.27
-53.48
-64.35
-74.63
-82.70
-86.93
-86.07
-79.61
-68.00
-52.58
-35.16
-17.56
-1.23
13.01
24.84
34.26
41.36
46.20
48.87
49.58
48.85
47.40
46.13
45.79
46.76
48.93
51.79
54.63
56.85
58.10
58.30
57.52
55.86
53.39
50.16
46.27
41.96
37.53
33.28
29.42
25.95
22.67
19.30
15.66
11.70
7.60
3.59
-0.19
-3.78
-7.39
-11.27
-15.53
-20.03
-24.49
-28.69
-32.64
-36.67
-41.33
-47.18
-54.50
-63.15
-72.46
-81.31
-88.22
-91.61
-90.18
-83.26
-71.12
-54.98
-36.74
-18.49
-1.88
12.15
23.45
32.31
39.14
44.15
47.38
48.90
48.98
48.18
47.22
46.74
47.07
48.22
49.88
51.67
53.24
54.39
55.04
55.11
54.48
52.98
50.42
46.72
41.94
36.36
30.40
24.50
19.04
14.19
9.93
6.00
2.07
-2.17
-6.89
-11.98
-17.18
-22.15
-26.70
-30.88
-35.00
-39.51
-44.88
-51.43
-59.23
-68.09
-77.46
-86.42
-93.72
-98.00
-98.02
-93.09
-83.27
-69.46
-53.15
-36.06
-19.81
-5.58
5.96
14.61
20.44
23.69
24.67
23.74
21.37
18.23
15.10
12.78
11.87
12.63
14.87
18.05
21.48
24.50
26.61
27.50
27.07
25.29
22.22
18.01
12.93
7.40
1.84
-3.35
-8.00
-12.19
-16.12
-20.01
-23.94
-27.85
-31.60
-35.17
-38.76
-42.75
-47.60
-53.69
-61.05
-69.25
-77.25
-83.61
-86.66
-85.00
-77.97
-65.87
-50.01
-32.23
-14.45
1.90
16.00
27.63
36.88
43.84
48.55
51.06
51.56
50.47
48.55
46.64
45.50
45.58
46.92
49.14
51.69
54.04
55.85
57.00
57.41
56.99
55.53
52.81
48.77
43.59
37.74
31.82
26.38
21.72
17.87
14.64
11.61
8.40
4.69
0.35
-4.50
-9.62
-14.65
-19.34
-23.63
-27.69
-31.91
-36.80
-42.88
-50.47
-59.51
-69.35
-78.68
-85.70
-88.54
-85.85
-77.23
-63.49
-46.34
-27.91
-10.18
5.52
18.58
28.97
36.98
42.93
47.05
49.47
50.33
49.92
48.68
47.21
46.05
45.61
46.03
47.21
48.87
50.69
52.35
53.54
53.91
53.16
51.02
47.35
42.23
35.96
29.03
22.08
15.68
10.23
5.83
2.23
-1.01
-4.41
-8.26
-12.53
-16.93
-21.03
-24.53
-27.41
-30.01
-32.87
-36.62
-41.75
-48.43
-56.39
-64.79
-72.37
-77.64
-79.18
-76.09
-68.22
-56.27
-41.64
-26.07
-11.23
1.64
11.86
19.27
24.01
26.30
26.40
24.63
21.51
17.73
14.14
11.44
10.06
10.03
11.06
12.76
14.74
16.67
18.28
19.26
19.36
18.40
16.46
13.77
10.69
7.56
4.55
1.63
-1.40
-4.83
-8.88
-13.51
-18.41
-23.09
-27.05
-30.03
-32.19
-34.06
-36.33
-39.64
-44.38
-50.59
-57.88
-65.40
-71.85
-75.66
-75.38
-70.10
-59.88
-45.92
-30.13
-14.65
-1.14
9.51
17.25
22.49
25.82
27.67
28.33
28.04
27.13
25.99
25.03
24.54
24.62
25.15
25.93
26.81
27.70
28.57
29.38
29.98
30.03
29.18
27.16
23.91
19.66
14.86
9.99
5.39
1.17
-2.79
-6.75
-10.96
-15.48
-20.16
-24.75
-28.95
-32.66
-36.05
-39.56
-43.81
-49.32
-56.31
-64.39
-72.61
-79.50
-83.52
-83.32
-78.19
-68.23
-54.38
-38.15
-21.36
-5.64
7.87
18.68
26.83
32.70
36.73
39.26
40.51
40.71
40.16
39.30
38.54
38.27
38.64
39.66
41.22
43.14
45.25
47.31
49.00
49.89
49.52
47.52
43.76
38.48
32.27
25.99
20.38
15.83
12.25
9.15
5.90
1.98
-2.80
-8.30
-14.19
-20.04
-25.57
-30.60
-35.22
-39.72
-44.55
-50.19
-56.96
-64.70
-72.76
-79.90
-84.54
-85.13
-80.63
-70.82
-56.49
-39.23
-21.03
-3.79
11.10
22.94
31.55
37.11
40.02
40.81
40.13
38.76
37.37
36.43
36.10
36.26
36.71
37.25
37.77
38.22
38.58
38.75
38.57
37.84
36.31
33.78
30.14
25.50
20.16
14.55
9.05
3.79
-1.35
-6.64
-12.29
-18.26
-24.22
-29.74
-34.45
-38.28
-41.50
-44.63
-48.35
-53.30
-59.89
-68.10
-77.29
-86.09
-92.64
-94.98
-91.70
-82.38
-67.82
-49.75
-30.35
-11.62
4.98
18.67
29.14
36.43
40.69
42.21
41.48
39.21
36.27
33.58
31.88
31.60
32.75
34.99
37.79
40.61
43.04
44.84
45.89
46.05
45.17
43.05
39.56
34.80
29.03
22.74
16.41
10.47
5.10
0.26
-4.33
-9.09
-14.32
-20.13
-26.31
-32.46
-38.13
-43.04
-47.35
-51.58
-56.58
-63.17
-71.74
-81.99
-92.69
-101.92
-107.40
-107.18
-100.16
-86.43
-67.31
-44.92
-21.70
0.18
19.16
34.46
45.95
53.88
58.66
60.80
60.84
59.44
57.42
55.62
54.73
55.10
56.65
58.99
61.59
64.02
66.03
67.50
68.37
68.45
67.44
65.02
61.02
55.53
48.98
41.97
35.11
28.76
22.93
17.35
11.63
5.48
-1.10
-7.88
-14.41
-20.35
-25.50
-30.01
-34.30
-39.00
-44.83
-52.37
-61.80
-72.69
-83.83
-93.34
-99.02
-98.89
-91.84
-77.98
-58.76
-36.53
-13.93
6.78
24.14
37.56
47.09
53.14
56.13
56.47
54.57
50.99
46.46
41.86
38.04
35.65
34.95
35.82
37.81
40.30
42.71
44.47
45.18
44.52
42.31
38.57
33.46
27.34
20.61
13.62
6.58
-0.40
-7.25
-13.85
-20.06
-25.75
-30.91
-35.68
-40.36
-45.33
-51.00
-57.77
-65.77
-74.74
-83.78
-91.37
-95.56
-94.52
-87.06
-73.14
-53.98
-31.73
-8.91
12.18
29.98
43.75
53.40
59.29
61.87
61.70
59.37
55.61
51.23
47.11
43.96
42.28
42.24
43.71
46.25
49.25
51.97
53.74
54.04
52.62
49.54
45.08
39.61
33.43
26.74
19.64
12.23
4.61
-3.08
-10.68
-18.04
-25.06
-31.68
-37.96
-44.07
-50.40
-57.43
-65.61
-75.06
-85.26
-94.89
-101.90
-104.03
-99.46
-87.49
-68.89
-45.67
-20.56
3.82
25.50
43.49
57.51
67.65
74.13
77.17
77.12
74.62
70.61
66.19
62.38
59.89
58.94
59.34
60.54
61.85
62.67
62.58
61.46
59.37
56.44
52.70
48.04
42.21
35.10
26.89
18.06
9.28
1.16
-5.98
-12.24
-18.01
-23.84
-30.22
-37.50
-45.80
-54.92
-64.23
-72.63
-78.58
-80.44
-76.95
-67.68
-53.28
-35.38
-16.16
2.18
17.97
30.26
38.82
43.81
45.58
44.49
40.98
35.61
29.17
22.69
17.19
13.40
11.65
11.75
13.14
15.15
17.15
18.67
19.33
18.78
16.69
12.85
7.35
0.56
-6.83
-14.06
-20.62
-26.41
-31.82
-37.56
-44.32
-52.45
-61.70
-71.08
-78.98
-83.50
-82.95
-76.35
-63.79
-46.46
-26.41
-6.03
12.55
27.85
39.16
46.45
50.07
50.54
48.40
44.29
38.95
33.29
28.20
24.44
22.44
22.18
23.23
24.92
26.54
27.48
27.35
25.91
23.10
18.95
13.57
7.22
0.21
-7.12
-14.45
-21.64
-28.75
-36.02
-43.81
-52.32
-61.40
-70.25
-77.46
-81.20
-79.75
-72.10
-58.48
-40.38
-20.18
-0.40
16.96
30.89
41.28
48.48
52.92
54.82
54.31
51.69
47.57
42.90
38.66
35.61
34.03
33.77
34.40
35.47
36.62
37.56
38.02
37.67
36.07
32.84
27.83
21.25
13.69
5.97
-1.10
-7.04
-11.88
-16.14
-20.69
-26.37
-33.66
-42.46
-51.87
-60.40
-66.19
-67.52
-63.32
-53.51
-39.10
-21.90
-4.05
12.55
26.56
37.35
44.87
49.38
51.28
50.99
49.00
45.85
42.17
38.62
35.73
33.82
32.94
32.84
33.10
33.34
33.25
32.79
31.98
30.80
29.06
26.39
22.40
16.89
10.04
2.39
-5.26
-12.22
-18.14
-23.08
-27.55
-32.25
-37.84
-44.65
-52.47
-60.46
-67.23
-71.17
-70.87
-65.58
-55.47
-41.63
-25.75
-9.67
5.02
17.30
26.70
33.19
36.94
38.21
37.29
34.63
30.85
26.82
23.51
21.68
21.70
23.37
25.97
28.57
30.33
30.77
29.85
27.91
25.35
22.49
19.35
15.73
11.35
6.00
-0.21
-6.91
-13.54
-19.58
-24.73
-28.98
-32.66
-36.20
-40.10
-44.78
-50.54
-57.41
-65.05
-72.59
-78.66
-81.61
-79.94
-72.82
-60.50
-44.23
-26.04
-8.07
7.92
20.94
30.72
37.43
41.40
42.91
42.28
39.98
36.80
33.76
31.81
31.55
32.93
35.38
38.00
40.02
41.02
40.99
40.19
38.87
37.15
34.88
31.83
27.78
22.72
16.92
10.88
5.19
0.25
-3.83
-7.31
-10.68
-14.44
-18.85
-23.86
-29.15
-34.32
-39.04
-43.31
-47.33
-51.51
-56.38
-62.43
-70.02
-79.11
-89.01
-98.30
-104.98
-106.94
-102.63
-91.63
-74.88
-54.45
-32.94
-12.71
4.61
18.35
28.62
35.91
40.74
43.52
44.54
44.13
42.83
41.32
40.33
40.35
41.50
43.50
45.83
47.93
49.42
50.16
50.21
49.67
48.59
46.91
44.45
41.10
36.80
31.71
26.22
20.81
15.89
11.70
8.16
4.91
1.48
-2.51
-7.26
-12.67
-18.43
-24.13
-29.41
-34.11
-38.33
-42.44
-46.92
-52.34
-59.13
-67.49
-77.20
-87.46
-96.92
-103.69
-105.78
-101.64
-90.72
-73.86
-53.07
-31.07
-10.42
7.10
20.74
30.56
37.08
40.82
42.21
41.69
39.78
37.24
34.86
33.30
32.89
33.56
34.96
36.63
38.23
39.58
40.69
41.64
42.33
42.50
41.73
39.51
35.56
29.96
23.18
15.98
9.17
3.28
-1.53
-5.50
-9.14
-12.89
-17.01
-21.45
-25.94
-30.26
-34.34
-38.43
-42.96
-48.47
-55.31
-63.57
-72.86
-82.31
-90.50
-95.69
-96.12
-90.58
-78.83
-61.84
-41.54
-20.34
-0.39
16.82
30.55
40.63
47.19
50.42
50.63
48.37
44.50
40.14
36.41
34.18
33.89
35.45
38.35
41.84
45.18
47.74
49.22
49.48
48.54
46.41
43.07
38.59
33.21
27.38
21.57
16.10
10.96
5.84
0.28
-6.00
-12.94
-20.17
-27.15
-33.42
-38.73
-43.20
-47.26
-51.65
-57.16
-64.45
-73.57
-83.73
-93.21
-99.69
-100.88
-95.22
-82.41
-63.57
-40.91
-17.15
5.19
24.29
39.23
49.91
56.73
60.28
61.24
60.22
57.94
55.21
52.80
51.35
51.17
52.23
54.19
56.65
59.17
61.40
63.07
63.90
63.71
62.30
59.57
55.52
50.28
44.07
37.22
30.10
22.99
16.05
9.29
2.63
-3.94
-10.30
-16.24
-21.56
-26.24
-30.57
-35.13
-40.61
-47.59
-56.23
-66.09
-75.99
-84.13
-88.41
-87.07
-79.16
-64.99
-46.11
-24.86
-3.74
15.18
30.67
42.27
50.04
54.35
55.60
54.25
50.87
46.19
41.12
36.62
33.47
32.12
32.50
34.12
36.21
38.04
39.09
39.20
38.42
36.89
34.57
31.25
26.66
20.60
13.17
4.81
-3.75
-11.65
-18.20
-23.12
-26.71
-29.71
-33.14
-37.86
-44.32
-52.47
-61.70
-71.00
-78.99
-83.97
-84.30
-78.72
-66.92
-49.79
-29.32
-8.06
11.64
28.12
40.68
49.22
53.94
55.09
53.04
48.41
42.24
35.90
30.69
27.53
26.64
27.58
29.47
31.45
32.91
33.74
34.10
34.16
33.85
32.71
30.09
25.47
18.74
10.36
1.22
-7.69
-15.58
-22.10
-27.34
-31.80
-36.26
-41.54
-48.30
-56.74
-66.27
-75.50
-82.38
-84.78
-81.13
-70.96
-55.11
-35.48
-14.46
5.65
23.15
37.10
47.20
53.62
56.69
56.89
54.78
51.10
46.72
42.56
39.35
37.49
36.97
37.43
38.33
39.15
39.55
39.43
38.81
37.76
36.22
33.98
30.67
26.00
19.85
12.43
4.29
-3.84
-11.25
-17.56
-22.70
-26.97
-30.88
-35.09
-40.24
-46.76
-54.62
-63.07
-70.62
-75.27
-75.08
-68.86
-56.67
-39.84
-20.58
-1.30
16.08
30.40
41.26
48.77
53.22
54.89
54.10
51.30
47.13
42.50
38.36
35.52
34.41
35.02
36.92
39.46
41.94
43.77
44.60
44.22
42.69
40.17
36.87
32.94
28.42
23.29
17.54
11.31
4.84
-1.55
-7.58
-13.13
-18.19
-22.84
-27.18
-31.33
-35.56
-40.28
-45.95
-52.83
-60.60
-68.19
-73.86
-75.67
-72.18
-62.92
-48.68
-31.26
-12.94
4.17
18.56
29.48
36.83
40.85
42.00
40.81
37.85
33.84
29.54
25.67
22.78
21.19
20.92
21.76
23.36
25.30
27.15
28.58
29.28
29.05
27.75
25.35
21.90
17.55
12.48
6.92
1.12
-4.71
-10.39
-15.76
-20.70
-25.12
-28.95
-32.19
-34.97
-37.58
-40.47
-44.20
-49.26
-55.86
-63.61
-71.45
-77.72
-80.53
-78.31
-70.39
-57.27
-40.59
-22.60
-5.53
8.97
20.09
27.74
32.29
34.21
33.93
31.88
28.52
24.45
20.38
17.03
14.97
14.51
15.61
17.91
20.80
23.59
25.70
26.78
26.70
25.50
23.28
20.09
16.02
11.21
5.98
0.70
-4.31
-8.91
-13.19
-17.33
-21.48
-25.66
-29.75
-33.61
-37.24
-40.86
-44.87
-49.74
-55.80
-62.99
-70.66
-77.54
-81.92
-82.14
-77.05
-66.53
-51.51
-33.73
-15.23
2.14
17.07
28.88
37.41
42.87
45.66
46.28
45.22
43.00
40.08
36.96
34.15
32.13
31.26
31.60
32.92
34.69
36.27
37.16
37.09
36.08
34.30
31.92
28.96
25.32
20.88
15.61
9.68
3.45
-2.68
-8.42
-13.66
-18.45
-22.92
-27.19
-31.41
-35.73
-40.45
-46.00
-52.69
-60.43
-68.46
-75.28
-78.97
-77.77
-70.81
-58.45
-42.28
-24.55
-7.54
7.17
18.85
27.48
33.33
36.58
37.26
35.40
31.30
25.72
19.78
14.64
11.14
9.59
9.72
10.97
12.66
14.29
15.56
16.33
16.48
15.77
13.88
10.47
5.39
-1.16
-8.60
-16.11
-22.90
-28.49
-32.89
-36.55
-40.25
-44.72
-50.49
-57.66
-65.79
-73.91
-80.56
-84.05
-82.88
-76.20
-64.21
-48.15
-30.01
-11.93
4.29
17.60
27.55
34.12
37.49
37.93
35.83
31.81
26.75
21.62
17.35
14.60
13.57
14.06
15.60
17.61
19.61
21.33
22.56
23.10
22.55
20.48
16.48
10.51
2.99
-5.24
-13.24
-20.30
-26.21
-31.32
-36.34
-42.04
-49.02
-57.39
-66.69
-75.77
-82.98
-86.46
-84.60
-76.54
-62.49
-43.75
-22.47
-1.08
18.26
34.09
45.77
53.36
57.35
58.36
57.04
54.03
50.06
45.96
42.63
40.80
40.82
42.47
45.05
47.65
49.45
50.03
49.46
48.07
46.21
43.96
41.03
36.88
31.06
23.48
14.60
5.29
-3.49
-11.07
-17.25
-22.37
-27.09
-32.15
-38.20
-45.62
-54.34
-63.72
-72.44
-78.65
-80.37
-76.09
-65.38
-49.05
-29.01
-7.65
12.84
30.83
45.48
56.53
64.10
68.47
70.07
69.48
67.46
64.84
62.43
60.85
60.44
61.17
62.74
64.71
66.65
68.27
69.43
70.04
70.00
69.15
67.29
64.36
60.44
55.79
50.72
45.48
40.21
34.96
29.77
24.71
19.92
15.52
11.59
8.09
4.87
1.69
-1.72
-5.59
-10.00
-14.88
-20.00
-25.11
-29.98
-34.57
-39.02
-43.63
-48.88
-55.20
-62.77
-71.20
-79.33
-85.39
-87.30
-83.43
-73.12
-57.05
-37.06
-15.61
4.90
22.68
36.82
47.19
54.14
58.23
60.02
59.99
58.70
56.69
54.58
52.90
51.99
51.86
52.28
52.87
53.33
53.56
53.63
53.63
53.52
53.04
51.87
49.74
46.58
42.59
38.07
33.36
28.67
24.11
19.69
15.40
11.20
7.08
3.04
-0.91
-4.73
-8.41
-11.97
-15.55
-19.37
-23.57
-28.19
-33.05
-37.79
-42.15
-46.03
-49.66
-53.56
-58.32
-64.38
-71.74
-79.75
-87.15
-92.21
-93.23
-89.03
-79.37
-65.20
-48.37
-31.11
-15.35
-2.33
7.59
14.61
19.15
21.55
22.02
20.82
18.37
15.31
12.42
10.39
9.63
10.18
11.76
13.92
16.21
18.29
19.99
21.24
22.02
22.19
21.51
19.72
16.67
12.54
7.77
2.99
-1.25
-4.67
-7.37
-9.75
-12.33
-15.50
-19.37
-23.70
-28.08
-32.05
-35.39
-38.18
-40.78
-43.74
-47.63
-52.83
-59.44
-67.14
-75.05
-81.83
-85.79
-85.38
-79.64
-68.55
-53.22
-35.54
-17.62
-1.24
12.49
23.16
30.85
35.86
38.49
39.05
37.92
35.66
32.95
30.54
29.05
28.78
29.64
31.23
32.95
34.34
35.19
35.57
35.70
35.68
35.42
34.57
32.73
29.62
25.35
20.21
14.69
9.19
3.96
-0.95
-5.60
-10.09
-14.49
-18.76
-22.82
-26.55
-29.95
-33.25
-36.89
-41.41
-47.27
-54.69
-63.41
-72.67
-81.23
-87.53
-89.96
-87.28
-79.01
-65.73
-48.96
-30.77
-13.19
2.31
14.99
24.74
31.75
36.23
38.35
38.36
36.68
33.90
30.70
27.70
25.39
24.09
23.94
24.91
26.74
28.99
31.04
32.28
32.26
30.76
27.82
23.71
18.74
13.23
7.45
1.60
-4.20
-9.87
-15.32
-20.52
-25.43
-30.14
-34.78
-39.51
-44.43
-49.59
-55.03
-60.90
-67.41
-74.66
-82.25
-89.14
-93.61
-93.81
-88.37
-77.01
-60.71
-41.37
-21.30
-2.48
13.73
26.67
36.15
42.26
45.21
45.31
43.11
39.38
35.18
31.61
29.58
29.57
31.49
34.73
38.42
41.78
44.32
45.84
46.30
45.63
43.68
40.29
35.51
29.66
23.33
17.15
11.57
6.65
2.06
-2.76
-8.32
-14.81
-21.95
-29.11
-35.57
-40.86
-45.08
-48.84
-53.14
-58.99
-66.97
-76.97
-87.98
-98.20
-105.25
-106.82
-101.21
-87.95
-68.07
-43.83
-18.19
6.06
26.93
43.41
55.43
63.48
68.22
70.25
70.20
68.69
66.49
64.38
63.08
63.00
64.21
66.39
69.01
71.49
73.42
74.67
75.27
75.29
74.67
73.17
70.40
66.08
60.19
53.10
45.45
37.98
31.20
25.27
19.95
14.74
9.17
2.96
-3.81
-10.73
-17.30
-23.14
-28.18
-32.82
-37.75
-43.85
-51.76
-61.61
-72.70
-83.50
-91.82
-95.33
-92.26
-82.00
-65.38
-44.43
-21.86
-0.24
18.56
33.64
44.83
52.37
56.62
57.88
56.49
52.96
48.07
42.82
38.24
35.15
33.96
34.57
36.44
38.80
40.90
42.23
42.59
41.93
40.26
37.53
33.65
28.56
22.38
15.39
8.00
0.61
-6.45
-12.96
-18.76
-23.80
-28.15
-32.03
-35.92
-40.43
-46.11
-53.25
-61.53
-69.92
-76.77
-80.16
-78.44
-70.83
-57.68
-40.47
-21.33
-2.49
14.33
28.15
38.69
46.08
50.52
52.18
51.22
47.92
42.92
37.19
31.94
28.26
26.85
27.74
30.35
33.69
36.71
38.63
39.07
38.01
35.61
32.10
27.71
22.57
16.84
10.64
4.15
-2.46
-8.92
-14.99
-20.50
-25.46
-30.09
-34.82
-40.15
-46.49
-54.03
-62.57
-71.49
-79.67
-85.57
-87.52
-84.11
-74.76
-59.96
-41.26
-20.82
-0.86
16.94
31.57
42.69
50.38
54.91
56.67
56.12
53.82
50.40
46.60
43.15
40.76
39.92
40.75
42.96
45.89
48.71
50.73
51.59
51.21
49.72
47.25
43.84
39.43
34.08
27.96
21.41
14.78
8.38
2.38
-3.21
-8.50
-13.68
-18.96
-24.49
-30.46
-36.96
-44.11
-51.93
-60.16
-68.05
-74.32
-77.31
-75.49
-68.04
-55.18
-38.26
-19.39
-0.76
15.87
29.48
39.74
46.82
51.06
52.87
52.55
50.46
47.07
42.98
38.93
35.71
33.88
33.71
35.03
37.35
39.92
42.02
42.99
42.38
40.06
36.21
31.23
25.62
19.78
13.90
7.98
1.91
-4.29
-10.46
-16.33
-21.70
-26.50
-30.78
-34.73
-38.55
-42.48
-46.86
-52.04
-58.28
-65.39
-72.52
-78.20
-80.62
-78.21
-70.24
-57.13
-40.32
-21.96
-4.22
11.20
23.33
31.96
37.30
39.71
39.48
36.96
32.68
27.48
22.53
18.94
17.49
18.32
20.93
24.40
27.78
30.30
31.49
31.26
29.75
27.22
24.02
20.45
16.68
12.68
8.32
3.44
-2.00
-7.88
-13.90
-19.72
-25.04
-29.75
-33.87
-37.64
-41.47
-45.84
-51.17
-57.58
-64.60
-71.11
-75.48
-75.96
-71.25
-60.98
-45.98
-28.02
-9.36
7.96
22.56
33.80
41.67
46.39
48.25
47.54
44.73
40.52
35.93
32.01
29.55
28.88
29.80
31.71
33.89
35.61
36.38
36.00
34.54
32.29
29.56
26.53
23.15
19.19
14.37
8.61
2.13
-4.63
-11.17
-17.10
-22.26
-26.76
-30.88
-35.03
-39.68
-45.24
-51.83
-59.10
-66.07
-71.26
-73.04
-70.11
-61.99
-49.19
-33.11
-15.69
1.09
15.64
26.95
34.62
38.72
39.56
37.67
33.71
28.57
23.24
18.66
15.54
14.11
14.18
15.26
16.81
18.38
19.67
20.41
20.31
19.05
16.40
12.32
6.99
0.80
-5.75
-12.22
-18.25
-23.67
-28.59
-33.35
-38.48
-44.47
-51.43
-58.90
-65.72
-70.30
-71.07
-66.97
-57.84
-44.52
-28.65
-12.20
3.03
15.75
25.29
31.59
34.89
35.58
34.11
30.97
26.76
22.18
17.97
14.73
12.74
12.00
12.22
13.03
14.05
14.99
15.56
15.46
14.35
11.90
7.89
2.37
-4.34
-11.65
-18.84
-25.33
-30.79
-35.33
-39.48
-43.99
-49.53
-56.40
-64.25
-71.93
-77.73
-79.72
-76.37
-67.08
-52.41
-34.00
-14.13
4.93
21.51
34.76
44.66
51.60
56.09
58.52
59.13
58.25
56.39
54.26
52.67
52.24
53.22
55.39
58.17
60.88
62.93
64.06
64.28
63.78
62.68
60.96
58.41
54.80
50.06
44.44
38.43
32.64
27.49
23.11
19.26
15.48
11.30
6.46
1.02
-4.74
-10.36
-15.48
-19.94
-23.85
-27.58
-31.67
-36.70
-43.16
-51.21
-60.52
-70.13
-78.46
-83.58
-83.72
-77.82
-66.00
-49.50
-30.44
-11.13
6.49
21.23
32.71
41.16
47.02
50.73
52.62
52.91
51.91
50.02
47.77
45.66
44.10
43.27
43.15
43.53
44.19
44.86
45.30
45.26
44.50
42.78
39.99
36.15
31.53
26.49
21.46
16.77
12.58
8.86
5.45
2.12
-1.27
-4.76
-8.26
-11.64
-14.80
-17.72
-20.52
-23.39
-26.54
-30.12
-34.09
-38.32
-42.60
-46.79
-50.86
-55.00
-59.50
-64.70
-70.75
-77.41
-83.91
-88.94
-90.94
-88.52
-81.01
-68.70
-52.88
-35.46
-18.43
-3.27
9.23
19.01
26.39
31.81
35.59
37.89
38.86
38.72
37.88
36.84
36.14
36.14
36.96
38.43
40.24
42.01
43.50
44.58
45.18
45.23
44.54
42.92
40.27
36.74
32.73
28.78
25.35
22.65
20.60
18.93
17.32
15.58
13.64
11.53
9.32
7.02
4.65
2.21
-0.24
-2.67
-5.04
-7.35
-9.72
-12.29
-15.22
-18.65
-22.58
-26.87
-31.19
-35.16
-38.52
-41.26
-43.69
-46.42
-50.10
-55.23
-61.87
-69.56
-77.28
-83.63
-87.05
-86.22
-80.37
-69.65
-55.12
-38.56
-21.97
-7.01
5.41
15.15
22.60
28.26
32.43
35.14
36.36
36.18
34.98
33.32
31.74
30.59
29.95
29.79
30.03
30.67
31.66
32.88
34.01
34.66
34.43
33.09
30.57
27.02
22.73
18.12
13.68
9.87
6.91
4.76
3.04
1.22
-1.14
-4.20
-7.81
-11.55
-15.02
-17.93
-20.33
-22.51
-24.94
-28.06
-32.12
-37.08
-42.56
-47.97
-52.80
-56.79
-60.08
-63.18
-66.72
-71.26
-77.04
-83.80
-90.81
-96.85
-100.44
-100.17
-95.12
-85.18
-71.17
-54.69
-37.63
-21.66
-7.97
2.94
11.01
16.49
19.73
21.09
21.02
20.03
18.72
17.65
17.24
17.71
19.11
21.32
24.15
27.34
30.61
33.64
36.09
37.65
38.06
37.21
35.16
32.08
28.32
24.29
20.41
17.01
14.21
11.91
9.80
7.50
4.75
1.53
-1.95
-5.38
-8.54
-11.46
-14.43
-17.91
-22.30
-27.74
-34.07
-40.81
-47.41
-53.50
-58.98
-64.16
-69.64
-76.10
-84.04
-93.49
-103.81
-113.62
-121.00
-123.84
-120.43
-110.03
-93.16
-71.59
-47.84
-24.48
-3.50
14.03
27.94
38.60
46.57
52.33
56.23
58.61
59.87
60.46
60.83
61.29
61.99
62.96
64.16
65.61
67.29
69.18
71.12
72.83
73.92
74.03
72.90
70.40
66.68
62.04
56.91
51.73
46.77
42.14
37.73
33.33
28.80
24.17
19.59
15.23
11.17
7.23
3.01
-1.94
-7.92
-14.91
-22.51
-30.16
-37.30
-43.65
-49.36
-54.95
-61.19
-68.81
-78.25
-89.39
-101.36
-112.50
-120.53
-123.09
-118.33
-105.66
-85.99
-61.66
-35.71
-11.11
10.03
26.72
38.98
47.43
52.81
55.72
56.67
56.12
54.68
53.04
51.87
51.65
52.55
54.41
56.87
59.53
62.06
64.25
65.97
67.05
67.26
66.35
64.13
60.54
55.74
49.96
43.54
36.80
30.09
23.70
17.91
12.84
8.38
4.20
-0.18
-5.19
-10.97
-17.34
-23.87
-30.11
-35.79
-40.97
-46.00
-51.49
-58.05
-66.19
-76.07
-87.40
-99.20
-109.78
-116.90
-118.26
-112.10
-97.90
-76.63
-50.64
-22.98
3.35
26.18
44.41
57.95
67.35
73.37
76.71
77.93
77.52
76.01
73.97
71.95
70.45
69.77
70.03
71.19
73.03
75.19
77.24
78.73
79.30
78.76
77.05
74.24
70.46
65.83
60.47
54.61
48.46
42.31
36.37
30.79
25.56
20.64
15.93
11.32
6.69
1.91
-3.18
-8.67
-14.60
-20.85
-27.26
-33.61
-39.77
-45.78
-51.87
-58.49
-66.16
-75.16
-85.23
-95.23
-103.19
-106.74
-103.75
-93.16
-75.44
-52.55
-27.31
-2.63
19.23
37.01
50.37
59.60
65.22
67.78
67.86
66.09
63.18
60.00
57.29
55.61
55.14
55.70
56.87
58.13
59.05
59.46
59.38
58.90
58.08
56.88
55.11
52.51
48.88
44.11
38.29
31.75
24.98
18.52
12.78
7.83
3.42
-0.95
-5.75
-11.15
-16.96
-22.67
-27.75
-31.92
-35.33
-38.49
-42.07
-46.74
-52.93
-60.79
-70.03
-79.82
-88.72
-94.80
-96.06
-91.02
-79.32
-61.92
-40.96
-19.05
1.39
18.71
32.18
41.82
48.02
51.27
52.01
50.69
47.82
44.04
40.08
36.64
34.25
33.24
33.59
35.01
37.05
39.22
41.09
42.40
42.98
42.68
41.34
38.78
34.92
29.88
24.07
18.12
12.67
8.11
4.41
1.14
-2.38
-6.74
-12.20
-18.52
-25.09
-31.19
-36.27
-40.20
-43.31
-46.24
-49.85
-54.91
-61.87
-70.61
-80.27
-89.16
-95.08
-95.82
-89.87
-77.08
-58.78
-37.38
-15.76
3.71
19.56
31.38
39.45
44.42
46.92
47.54
46.83
45.25
43.27
41.21
39.30
37.67
36.40
35.58
35.25
35.42
36.02
37.00
38.21
39.37
40.06
39.74
37.89
34.25
29.03
22.81
16.43
10.59
5.62
1.41
-2.44
-6.40
-10.78
-15.55
-20.50
-25.26
-29.57
-33.40
-36.98
-40.76
-45.33
-51.17
-58.41
-66.61
-74.64
-80.81
-83.24
-80.37
-71.58
-57.43
-39.56
-20.22
-1.69
14.33
26.95
36.02
41.85
44.90
45.63
44.37
41.51
37.46
32.82
28.26
24.42
21.82
20.68
20.88
22.03
23.61
25.12
26.17
26.54
26.06
24.65
22.22
18.75
14.29
9.01
3.12
-3.10
-9.38
-15.49
-21.22
-26.47
-31.21
-35.55
-39.70
-43.96
-48.68
-54.19
-60.66
-67.84
-74.99
-80.73
-83.37
-81.36
-73.82
-60.98
-44.16
-25.41
-6.96
9.33
22.33
31.64
37.35
39.84
39.58
37.09
32.96
27.90
22.74
18.26
15.09
13.51
13.38
14.23
15.44
16.46
16.95
16.86
16.29
15.32
13.86
11.68
8.45
4.01
-1.58
-8.00
-14.71
-21.25
-27.27
-32.67
-37.59
-42.35
-47.39
-53.14
-59.94
-67.85
-76.44
-84.68
-90.96
-93.41
-90.40
-81.16
-66.07
-46.75
-25.56
-4.99
13.10
27.73
38.72
46.35
50.94
52.62
51.50
47.90
42.56
36.55
31.06
27.03
24.90
24.55
25.46
26.93
28.36
29.34
29.66
29.32
28.29
26.47
23.67
19.65
14.35
7.98
0.95
-6.19
-12.97
-19.17
-24.88
-30.41
-36.18
-42.66
-50.22
-59.06
-68.94
-78.98
-87.61
-92.75
-92.36
-85.17
-71.15
-51.62
-28.92
-5.67
15.87
34.20
48.68
59.26
66.11
69.54
69.87
67.63
63.63
58.88
54.45
51.16
49.40
49.04
49.58
50.31
50.61
50.12
48.80
46.84
44.48
41.86
38.84
35.12
30.28
24.08
16.57
8.13
-0.62
-8.99
-16.52
-23.00
-28.63
-33.92
-39.58
-46.35
-54.70
-64.60
-75.21
-84.92
-91.59
-93.10
-88.01
-76.05
-58.28
-36.85
-14.37
6.74
24.71
38.66
48.43
54.31
56.70
56.03
52.78
47.59
41.41
35.32
30.35
27.17
25.89
26.16
27.30
28.71
29.97
30.90
31.46
31.48
30.65
28.53
24.73
19.14
12.01
3.94
-4.23
-11.77
-18.30
-23.96
-29.35
-35.32
-42.67
-51.76
-62.25
-73.03
-82.32
-87.97
-87.99
-81.18
-67.50
-48.24
-25.74
-2.76
18.24
35.63
48.70
57.47
62.29
63.55
61.67
57.21
51.00
44.14
37.81
32.96
30.01
28.82
28.85
29.46
30.16
30.71
31.06
31.16
30.73
29.23
26.08
20.84
13.55
4.76
-4.58
-13.43
-21.06
-27.28
-32.48
-37.50
-43.35
-50.84
-60.26
-71.14
-82.13
-91.16
-95.82
-94.06
-84.83
-68.55
-47.08
-23.19
0.18
20.71
37.06
48.91
56.59
60.70
61.79
60.35
56.83
51.86
46.23
40.81
36.33
33.22
31.51
30.96
31.15
31.71
32.35
32.80
32.70
31.54
28.82
24.19
17.67
9.74
1.17
-7.19
-14.74
-21.35
-27.44
-33.84
-41.48
-50.87
-61.73
-72.71
-81.57
-85.71
-83.09
-72.89
-55.94
-34.53
-11.65
9.78
27.69
41.10
50.03
55.06
56.92
56.18
53.28
48.59
42.60
35.98
29.53
23.96
19.83
17.39
16.56
17.01
18.18
19.34
19.79
18.89
16.28
11.92
6.14
-0.58
-7.71
-14.81
-21.71
-28.50
-35.58
-43.51
-52.74
-63.25
-74.21
-83.84
-89.74
-89.69
-82.35
-67.97
-48.30
-26.12
-4.34
14.74
29.89
40.81
47.86
51.61
52.52
50.94
47.17
41.66
35.08
28.33
22.39
18.02
15.60
14.92
15.29
15.82
15.70
14.49
12.14
8.91
5.08
0.85
-3.86
-9.22
-15.45
-22.71
-31.11
-40.72
-51.52
-63.15
-74.65
-84.38
-90.18
-90.01
-82.64
-68.21
-48.34
-25.71
-3.25
16.66
32.60
44.18
51.73
55.87
57.25
56.42
53.89
50.14
45.75
41.33
37.52
34.82
33.48
33.44
34.28
35.38
36.08
35.79
34.17
31.07
26.54
20.78
14.07
6.78
-0.72
-8.20
-15.64
-23.35
-31.80
-41.43
-52.17
-63.20
-72.83
-78.83
-79.06
-72.30
-58.71
-39.93
-18.58
2.52
21.16
36.18
47.39
55.28
60.49
63.59
64.90
64.64
63.05
60.54
57.73
55.27
53.68
53.14
53.41
53.87
53.88
52.95
51.01
48.31
45.18
41.77
37.90
33.16
27.18
19.88
11.60
2.95
-5.36
-12.84
-19.31
-24.97
-30.38
-36.26
-43.35
-52.12
-62.47
-73.49
-83.58
-90.66
-92.77
-88.64
-78.09
-62.13
-42.64
-21.90
-1.95
15.76
30.60
42.61
52.09
59.35
64.52
67.51
68.34
67.31
65.07
62.52
60.50
59.50
59.60
60.48
61.64
62.62
63.12
63.01
62.24
60.81
58.65
55.67
51.76
46.90
41.23
35.07
28.82
22.88
17.48
12.62
8.09
3.56
-1.34
-6.89
-13.18
-20.04
-27.11
-33.88
-39.95
-45.19
-49.85
-54.55
-60.07
-67.06
-75.83
-86.09
-96.89
-106.65
-113.41
-115.24
-110.74
-99.58
-82.62
-61.78
-39.46
-17.95
1.13
17.03
29.69
39.43
46.68
51.74
54.89
56.42
56.74
56.30
55.56
54.86
54.35
54.06
53.95
53.98
54.17
54.50
54.89
55.21
55.15
54.44
52.79
50.04
46.17
41.39
36.07
30.72
25.80
21.55
17.90
14.50
10.90
6.79
2.18
-2.60
-7.05
-10.83
-13.89
-16.58
-19.47
-23.13
-27.85
-33.65
-40.17
-46.92
-53.39
-59.21
-64.27
-68.77
-73.23
-78.32
-84.70
-92.72
-102.05
-111.56
-119.41
-123.44
-121.79
-113.51
-98.95
-79.68
-58.06
-36.54
-17.05
-0.63
12.58
22.99
31.23
37.77
42.83
46.49
48.72
49.66
49.59
48.90
47.97
47.12
46.50
46.22
46.32
46.84
47.73
48.85
49.89
50.40
49.94
48.21
45.19
41.18
36.66
32.10
27.82
23.86
20.13
16.43
12.60
8.62
4.54
0.47
-3.44
-7.17
-10.77
-14.45
-18.54
-23.36
-29.07
-35.56
-42.41
-49.05
-55.04
-60.23
-64.95
-69.83
-75.68
-83.11
-92.25
-102.50
-112.42
-119.98
-122.99
-119.74
-109.60
-93.31
-72.74
-50.38
-28.65
-9.25
7.03
20.24
30.86
39.43
46.22
51.26
54.44
55.81
55.70
54.71
53.60
53.00
53.24
54.32
55.97
57.82
59.51
60.81
61.48
61.37
60.35
58.34
55.41
51.69
47.35
42.57
37.42
31.95
26.23
20.39
14.66
9.29
4.46
0.16
-3.87
-8.01
-12.65
-17.98
-23.95
-30.21
-36.33
-42.00
-47.16
-52.07
-57.24
-63.29
-70.79
-79.95
-90.47
-101.33
-110.75
-116.52
-116.54
-109.49
-95.34
-75.51
-52.53
-29.25
-8.12
9.46
23.09
33.14
40.22
44.89
47.48
48.30
47.73
46.27
44.42
42.62
41.12
40.13
39.78
40.22
41.52
43.52
45.78
47.62
48.32
47.29
44.22
39.15
32.51
25.02
17.49
10.65
4.85
-0.06
-4.60
-9.49
-15.17
-21.64
-28.45
-34.97
-40.69
-45.56
-50.09
-55.18
-61.85
-70.75
-81.79
-93.84
-104.81
-112.06
-113.17
-106.64
-92.44
-72.03
-47.93
-23.00
0.25
20.17
35.95
47.46
54.98
58.94
59.84
58.30
55.09
51.10
47.23
44.17
42.35
41.85
42.50
44.00
45.98
48.04
49.74
50.62
50.21
48.19
44.48
39.36
33.29
26.81
20.28
13.75
6.96
-0.41
-8.59
-17.50
-26.66
-35.51
-43.53
-50.53
-56.69
-62.59
-68.98
-76.67
-86.22
-97.55
-109.71
-120.70
-127.73
-127.99
-119.49
-101.84
-76.58
-46.82
-16.28
11.75
35.19
53.34
66.56
75.75
81.76
85.22
86.55
86.18
84.63
82.55
80.55
79.10
78.37
78.33
78.81
79.59
80.47
81.25
81.66
81.43
80.25
77.85
74.12
69.10
63.01
56.15
48.81
41.23
33.58
26.00
18.64
11.62
5.00
-1.29
-7.48
-13.86
-20.69
-28.08
-35.96
-44.12
-52.22
-59.96
-67.14
-73.77
-80.18
-86.98
-95.01
-104.97
-116.95
-130.04
-142.19
-150.43
-151.68
-143.64
-125.69
-99.18
-67.10
-33.28
-1.28
26.34
48.38
64.82
76.37
83.99
88.59
90.99
91.92
92.08
92.05
92.24
92.75
93.49
94.22
94.76
95.03
95.08
95.09
95.16
95.30
95.32
94.80
93.26
90.31
85.77
79.84
73.02
65.98
59.36
53.54
48.52
44.01
39.54
34.63
28.98
22.57
15.66
8.68
2.06
-3.95
-9.38
-14.57
-19.97
-25.96
-32.67
-39.96
-47.43
-54.64
-61.19
-66.93
-72.00
-76.88
-82.30
-89.05
-97.69
-108.12
-119.30
-129.26
-135.44
-135.40
-127.59
-111.92
-89.88
-64.14
-37.77
-13.42
7.21
23.56
35.91
44.88
51.09
54.92
56.63
56.52
55.12
53.09
51.05
49.40
48.23
47.47
47.03
46.93
47.29
48.17
49.40
50.56
51.06
50.27
47.75
43.45
37.68
31.07
24.34
18.10
12.59
7.64
2.81
-2.43
-8.42
-15.16
-22.34
-29.42
-35.89
-41.45
-46.17
-50.56
-55.44
-61.63
-69.55
-78.87
-88.35
-96.03
-99.71
-97.57
-88.73
-73.56
-53.62
-31.28
-9.11
10.68
26.73
38.61
46.64
51.46
53.78
54.11
52.93
50.73
48.12
45.70
43.88
42.76
42.16
41.80
41.47
41.14
40.89
40.76
40.65
40.27
39.25
37.23
34.02
29.59
24.18
18.18
12.08
6.19
0.55
-5.06
-10.97
-17.30
-23.85
-30.09
-35.42
-39.49
-42.40
-44.79
-47.53
-51.55
-57.50
-65.56
-75.24
-85.38
-94.17
-99.53
-99.58
-93.24
-80.57
-62.92
-42.43
-21.55
-2.38
13.73
26.27
35.33
41.38
44.92
46.38
46.09
44.29
41.33
37.63
33.75
30.27
27.63
25.99
25.19
24.88
24.67
24.31
23.71
22.87
21.66
19.71
16.44
11.32
4.13
-4.74
-14.40
-23.65
-31.52
-37.59
-42.13
-45.90
-49.83
-54.62
-60.59
-67.64
-75.30
-82.80
-89.01
-92.51
-91.76
-85.62
-73.75
-57.01
-37.28
-16.98
1.60
16.92
28.36
36.09
40.61
42.47
42.06
39.73
35.96
31.43
26.90
23.08
20.30
18.54
17.47
16.77
16.24
15.88
15.71
15.59
15.08
13.60
10.56
5.72
-0.71
-8.17
-15.93
-23.37
-30.27
-36.72
-43.25
-50.53
-59.14
-69.16
-79.96
-90.02
-97.27
-99.52
-95.20
-83.87
-66.47
-45.07
-22.32
-0.77
17.63
31.86
41.66
47.40
49.65
49.09
46.37
42.23
37.40
32.66
28.66
25.84
24.35
24.01
24.51
25.36
26.08
26.13
25.02
22.33
17.84
11.61
4.00
-4.39
-12.94
-21.19
-28.95
-36.45
-44.22
-52.95
-63.17
-74.86
-87.14
-98.17
-105.48
-106.56
-99.72
-84.71
-62.97
-37.27
-10.89
13.32
33.54
49.17
60.50
68.16
72.74
74.56
73.95
71.37
67.66
63.83
60.80
59.08
58.58
58.80
59.09
58.97
58.30
57.18
55.68
53.67
50.71
46.21
39.73
31.16
20.92
9.79
-1.24
-11.32
-19.98
-27.28
-33.83
-40.55
-48.47
-58.37
-70.43
-84.06
-97.74
-109.17
-115.74
-115.12
-105.97
-88.54
-64.62
-37.16
-9.49
15.67
36.64
52.92
64.83
72.95
77.81
79.77
79.21
76.67
72.97
69.02
65.66
63.36
62.23
62.00
62.28
62.67
62.89
62.84
62.40
61.35
59.32
55.90
50.86
44.31
36.76
28.98
21.68
15.23
9.49
3.89
-2.21
-9.18
-16.95
-24.95
-32.45
-38.92
-44.29
-49.10
-54.29
-60.94
-69.88
-81.32
-94.54
-107.84
-118.66
-124.07
-121.51
-109.62
-88.84
-61.41
-30.89
-1.08
25.02
45.83
61.20
71.95
79.11
83.46
85.43
85.34
83.64
81.12
78.68
77.06
76.59
77.11
78.16
79.31
80.31
81.17
81.92
82.49
82.52
81.51
79.02
74.84
69.18
62.61
55.89
49.71
44.48
40.20
36.47
32.73
28.50
23.58
18.17
12.74
7.69
3.18
-1.00
-5.38
-10.52
-16.68
-23.75
-31.22
-38.50
-45.18
-51.25
-57.14
-63.52
-71.14
-80.45
-91.40
-103.25
-114.41
-122.65
-125.51
-121.03
-108.40
-88.40
-63.28
-36.16
-10.15
12.46
30.57
44.16
53.84
60.42
64.48
66.41
66.45
64.93
62.35
59.37
56.69
54.84
54.05
54.17
54.80
55.50
55.91
55.90
55.42
54.41
52.71
50.00
46.00
40.62
34.06
26.82
19.58
12.97
7.31
2.55
-1.75
-6.20
-11.29
-17.14
-23.44
-29.53
-34.73
-38.72
-41.65
-44.21
-47.31
-51.84
-58.30
-66.70
-76.42
-86.22
-94.36
-98.85
-97.90
-90.51
-76.86
-58.33
-37.23
-16.14
2.75
18.12
29.56
37.33
42.01
44.19
44.40
43.07
40.70
37.92
35.35
33.47
32.50
32.38
32.81
33.53
34.34
35.23
36.18
37.00
37.28
36.45
34.04
29.87
24.22
17.73
11.15
5.07
-0.26
-4.99
-9.51
-14.27
-19.52
-25.18
-30.93
-36.32
-41.09
-45.29
-49.32
-53.86
-59.54
-66.74
-75.25
-84.22
-92.11
-97.00
-97.05
-91.03
-78.84
-61.61
-41.45
-20.84
-1.93
13.92
26.25
35.22
41.24
44.70
45.93
45.26
43.19
40.38
37.57
35.39
34.24
34.21
35.11
36.61
38.29
39.77
40.81
41.29
41.19
40.49
39.10
36.80
33.39
28.81
23.33
17.49
11.94
7.16
3.26
-0.09
-3.43
-7.31
-11.99
-17.40
-23.15
-28.70
-33.62
-37.71
-41.14
-44.36
-48.14
-53.27
-60.35
-69.42
-79.71
-89.60
-96.90
-99.39
-95.48
-84.74
-68.10
-47.62
-25.88
-5.32
12.30
26.11
36.05
42.54
46.20
47.59
47.16
45.27
42.26
38.54
34.57
30.92
28.07
26.40
26.00
26.67
27.98
29.38
30.30
30.32
29.14
26.60
22.65
17.28
10.56
2.67
-6.05
-15.09
-23.79
-31.57
-38.04
-43.18
-47.33
-51.06
-55.04
-59.86
-65.93
-73.37
-81.96
-90.97
-99.07
-104.45
-105.17
-99.77
-87.79
-70.12
-48.76
-26.32
-5.28
12.64
26.60
36.57
42.95
46.19
46.71
44.88
41.17
36.28
31.13
26.72
23.84
22.91
23.78
25.86
28.34
30.45
31.71
31.97
31.30
29.77
27.32
23.69
18.58
11.84
3.59
-5.69
-15.25
-24.31
-32.32
-39.09
-44.90
-50.29
-55.94
-62.48
-70.39
-79.86
-90.75
-102.30
-112.96
-120.48
-122.30
-116.36
-101.91
-79.95
-53.09
-24.75
1.84
24.44
42.12
54.97
63.67
68.95
71.36
71.28
69.13
65.50
61.18
57.09
54.06
52.60
52.78
54.22
56.28
58.28
59.67
60.08
59.37
57.46
54.32
49.92
44.26
37.45
29.66
21.17
12.37
3.64
-4.63
-12.19
-18.99
-25.18
-31.12
-37.35
-44.43
-52.92
-63.09
-74.72
-86.82
-97.57
-104.57
-105.42
-98.46
-83.41
-61.58
-35.57
-8.54
16.62
37.90
54.39
66.16
73.81
78.07
79.51
78.53
75.48
70.90
65.62
60.59
56.73
54.52
53.94
54.56
55.74
56.90
57.72
58.06
57.78
56.65
54.23
50.05
43.74
35.30
25.22
14.38
3.83
-5.56
-13.42
-20.02
-26.06
-32.49
-40.11
-49.36
-60.21
-72.11
-84.02
-94.37
-101.21
-102.60
-97.13
-84.49
-65.68
-42.85
-18.70
4.28
24.32
40.50
52.58
60.65
64.93
65.67
63.26
58.41
52.09
45.48
39.69
35.49
33.16
32.57
33.20
34.50
35.95
37.15
37.69
37.11
34.89
30.66
24.38
16.43
7.59
-1.24
-9.34
-16.34
-22.30
-27.63
-33.01
-39.13
-46.52
-55.31
-64.91
-73.98
-80.68
-83.13
-80.04
-71.21
-57.60
-41.01
-23.46
-6.65
8.32
20.97
31.14
38.71
43.58
45.69
45.24
42.73
38.97
34.82
30.97
27.86
25.62
24.26
23.69
23.72
24.05
24.14
23.39
21.31
17.74
12.92
7.38
1.66
-3.90
-9.27
-14.76
-20.89
-28.23
-37.18
-47.82
-59.51
-70.84
-79.69
-83.73
-81.07
-70.97
-54.18
-32.74
-9.37
13.27
33.16
49.20
61.10
69.04
73.36
74.37
72.45
68.09
62.04
55.36
49.15
44.34
41.36
40.03
39.81
40.02
40.15
39.99
39.53
38.68
37.15
34.40
29.86
23.15
14.39
4.23
-6.31
-16.13
-24.49
-31.20
-36.78
-42.23
-48.72
-57.19
-67.95
-80.47
-93.26
-104.13
-110.55
-110.32
-102.21
-86.42
-64.59
-39.40
-13.76
9.85
29.91
45.86
57.80
66.10
71.20
73.52
73.51
71.73
68.86
65.65
62.77
60.75
59.86
60.04
61.00
62.30
63.54
64.48
65.06
65.26
64.97
63.84
61.42
57.28
51.30
43.79
35.47
27.21
19.84
13.82
9.13
5.22
1.28
-3.52
-9.65
-17.05
-25.13
-33.11
-40.33
-46.52
-51.89
-56.99
-62.57
-69.35
-77.82
-87.97
-99.06
-109.47
-116.83
-118.66
-113.12
-99.69
-79.48
-54.91
-28.97
-4.42
16.78
33.67
46.11
54.45
59.36
61.57
61.86
60.98
59.60
58.26
57.24
56.58
56.22
56.03
55.95
56.07
56.49
57.26
58.28
59.27
59.84
59.64
58.43
56.11
52.75
48.50
43.65
38.45
33.15
27.87
22.63
17.38
12.16
7.15
2.58
-1.39
-4.85
-8.16
-11.82
-16.21
-21.43
-27.25
-33.24
-39.00
-44.27
-49.04
-53.55
-58.27
-63.79
-70.68
-79.15
-88.70
-97.91
-104.64
-106.51
-101.73
-89.74
-71.57
-49.50
-26.45
-5.15
12.49
25.67
34.54
39.87
42.60
43.53
43.23
42.10
40.46
38.68
37.11
36.02
35.51
35.50
35.87
36.49
37.37
38.51
39.78
40.86
41.26
40.54
38.49
35.30
31.44
27.50
23.86
20.59
17.45
14.08
10.22
5.86
1.30
-3.02
-6.76
-9.81
-12.44
-15.11
-18.25
-22.11
-26.66
-31.57
-36.44
-40.89
-44.71
-47.93
-50.85
-54.02
-58.14
-63.73
-70.81
-78.56
-85.32
-88.92
-87.40
-79.71
-66.13
-48.27
-28.55
-9.42
7.21
20.29
29.59
35.44
38.41
39.13
38.20
36.22
33.73
31.22
29.02
27.38
26.36
25.98
26.20
26.91
27.98
29.20
30.34
31.13
31.30
30.60
28.87
26.11
22.51
18.41
14.24
10.30
6.66
3.18
-0.32
-3.94
-7.52
-10.82
-13.67
-16.06
-18.31
-20.77
-23.70
-27.17
-30.97
-34.82
-38.53
-42.01
-45.28
-48.46
-51.72
-55.36
-59.85
-65.58
-72.56
-80.06
-86.49
-89.69
-87.67
-79.31
-64.96
-46.41
-26.31
-7.35
8.53
20.49
28.70
33.80
36.48
37.18
36.16
33.74
30.42
26.95
24.07
22.28
21.67
21.97
22.74
23.63
24.49
25.37
26.37
27.48
28.55
29.22
29.13
27.95
25.58
22.09
17.77
12.94
7.93
2.99
-1.72
-6.08
-10.02
-13.57
-16.89
-20.27
-24.02
-28.28
-32.94
-37.68
-42.11
-46.03
-49.51
-52.89
-56.76
-61.69
-68.10
-76.08
-85.11
-93.97
-100.76
-103.31
-99.84
-89.63
-73.40
-53.21
-31.81
-11.77
5.13
18.19
27.58
33.82
37.40
38.57
37.50
34.45
30.05
25.21
20.97
18.14
17.15
17.95
20.13
23.16
26.56
29.89
32.76
34.74
35.39
34.36
31.56
27.28
22.08
16.64
11.45
6.66
2.04
-2.88
-8.52
-15.05
-22.20
-29.40
-35.98
-41.48
-45.85
-49.55
-53.40
-58.32
-65.00
-73.57
-83.38
-92.94
-100.13
-102.65
-98.61
-87.21
-69.08
-46.25
-21.61
1.86
21.89
37.27
47.82
54.03
56.57
56.08
53.14
48.39
42.61
36.74
31.66
28.11
26.45
26.66
28.36
30.91
33.59
35.85
37.34
37.99
37.82
36.87
34.95
31.78
27.06
20.70
12.96
4.40
-4.30
-12.45
-19.67
-25.94
-31.57
-37.11
-43.24
-50.50
-59.21
-69.21
-79.70
-89.23
-95.78
-97.15
-91.59
-78.43
-58.52
-34.05
-8.04
16.50
37.34
53.32
64.29
70.66
73.08
72.23
68.86
63.78
57.92
52.27
47.67
44.68
43.50
43.92
45.42
47.34
49.06
50.25
50.85
50.95
50.58
49.39
46.76
42.00
34.75
25.30
14.55
3.75
-6.07
-14.37
-21.32
-27.58
-33.98
-41.32
-50.09
-60.41
-71.89
-83.44
-93.27
-99.14
-98.87
-90.99
-75.44
-53.68
-28.38
-2.66
20.77
40.16
54.77
64.64
70.15
71.69
69.75
65.03
58.57
51.72
45.76
41.66
39.72
39.65
40.77
42.31
43.71
44.72
45.34
45.67
45.70
45.18
43.59
40.31
34.84
27.12
17.61
7.24
-2.90
-11.96
-19.54
-25.79
-31.31
-36.99
-43.71
-52.10
-62.26
-73.42
-83.95
-91.51
-93.63
-88.42
-75.28
-55.06
-30.00
-3.10
22.63
44.77
61.89
73.49
79.85
81.67
79.81
75.23
69.03
62.40
56.54
52.40
50.43
50.53
52.10
54.34
56.59
58.41
59.57
59.96
59.36
57.57
54.45
50.01
44.49
38.18
31.39
24.27
16.83
9.07
1.01
-7.15
-15.14
-22.59
-29.24
-35.01
-40.12
-45.11
-50.73
-57.74
-66.61
-77.12
-88.13
-97.61
-102.97
-101.74
-92.43
-75.10
-51.54
-24.79
1.70
25.02
43.48
56.71
65.27
70.11
72.08
71.77
69.64
66.25
62.34
58.79
56.37
55.46
55.97
57.47
59.37
61.17
62.53
63.35
63.56
63.10
61.86
59.66
56.30
51.65
45.77
38.94
31.68
24.59
18.19
12.74
8.09
3.79
-0.78
-6.05
-12.11
-18.60
-24.94
-30.56
-35.24
-39.19
-43.00
-47.43
-53.18
-60.66
-69.84
-80.03
-89.82
-97.20
-99.93
-96.20
-85.31
-68.05
-46.59
-23.76
-2.27
16.01
30.24
40.44
46.93
50.10
50.26
47.86
43.61
38.54
33.77
30.24
28.52
28.64
30.24
32.67
35.25
37.41
38.85
39.47
39.35
38.49
36.82
34.15
30.30
25.32
19.55
13.53
7.80
2.73
-1.70
-5.80
-9.99
-14.64
-19.85
-25.38
-30.83
-35.72
-39.73
-42.85
-45.45
-48.19
-51.91
-57.31
-64.71
-73.76
-83.27
-91.38
-95.88
-94.88
-87.41
-73.82
-55.71
-35.48
-15.63
1.90
16.07
26.60
33.74
37.86
39.28
38.32
35.44
31.37
27.04
23.47
21.43
21.30
22.97
25.92
29.39
32.61
34.98
36.20
36.23
35.27
33.60
31.42
28.77
25.59
21.76
17.25
12.15
6.72
1.25
-3.98
-8.79
-13.17
-17.20
-21.09
-25.10
-29.42
-34.16
-39.22
-44.37
-49.36
-54.09
-58.68
-63.51
-69.11
-75.95
-84.32
-93.93
-103.81
-112.27
-117.18
-116.49
-108.97
-94.62
-74.87
-52.14
-29.14
-8.17
9.40
23.14
33.29
40.36
44.82
47.02
47.23
45.83
43.39
40.66
38.45
37.41
37.85
39.69
42.56
45.91
49.20
52.01
53.96
54.75
54.20
52.25
49.05
44.95
40.34
35.53
30.68
25.82
20.93
16.03
11.12
6.24
1.38
-3.44
-8.20
-12.88
-17.48
-22.07
-26.73
-31.49
-36.27
-40.95
-45.53
-50.20
-55.39
-61.66
-69.49
-79.01
-89.83
-100.94
-110.71
-117.14
-118.20
-112.41
-99.37
-80.07
-56.65
-31.86
-8.34
12.05
28.36
40.49
48.78
53.70
55.70
55.26
52.88
49.25
45.23
41.76
39.65
39.46
41.23
44.59
48.82
53.10
56.73
59.27
60.47
60.22
58.54
55.50
51.32
46.36
40.99
35.54
30.20
25.00
19.89
14.80
9.67
4.48
-0.79
-6.14
-11.58
-17.12
-22.76
-28.48
-34.28
-40.10
-45.88
-51.58
-57.31
-63.37
-70.28
-78.63
-88.79
-100.59
-112.97
-124.01
-131.10
-131.70
-124.04
-107.84
-84.52
-56.88
-28.24
-1.58
21.17
39.26
52.81
62.32
68.27
71.01
70.96
68.79
65.47
62.11
59.72
58.86
59.59
61.56
64.25
67.17
69.97
72.45
74.41
75.63
75.77
74.55
71.77
67.49
61.95
55.55
48.69
41.68
34.76
28.09
21.83
16.11
10.96
6.21
1.51
-3.58
-9.45
-16.18
-23.54
-31.02
-38.08
-44.36
-49.85
-54.94
-60.32
-66.80
-75.15
-85.74
-98.31
-111.66
-123.64
-131.44
-132.30
-124.38
-107.43
-83.01
-54.12
-24.32
3.22
26.39
44.39
57.39
66.07
71.15
73.23
72.77
70.30
66.52
62.27
58.43
55.73
54.52
54.82
56.27
58.38
60.68
62.79
64.49
65.63
65.93
64.93
62.13
57.14
49.98
41.14
31.57
22.32
14.22
7.55
2.03
-3.04
-8.42
-14.65
-21.85
-29.66
-37.41
-44.43
-50.27
-54.92
-58.93
-63.18
-68.68
-76.25
-86.19
-98.02
-110.32
-120.75
-126.50
-125.00
-114.73
-95.92
-70.55
-41.85
-13.37
12.06
32.80
48.40
59.20
65.80
68.79
68.71
66.23
62.26
57.89
54.17
51.91
51.43
52.62
54.90
57.57
60.02
61.91
63.20
64.03
64.42
64.13
62.67
59.45
54.13
46.83
38.20
29.22
20.83
13.65
7.65
2.35
-3.02
-9.09
-16.05
-23.61
-31.12
-37.94
-43.77
-48.84
-53.76
-59.32
-66.25
-74.93
-85.41
-97.19
-109.10
-119.26
-125.24
-124.64
-115.87
-98.76
-74.81
-46.77
-17.89
8.96
31.87
50.00
63.37
72.43
77.84
80.21
80.14
78.22
75.19
71.87
69.09
67.48
67.31
68.35
70.04
71.74
72.99
73.72
74.01
73.92
73.27
71.60
68.40
63.45
56.93
49.43
41.77
34.65
28.43
23.05
17.99
12.60
6.30
-1.07
-9.20
-17.38
-24.82
-30.98
-35.84
-39.89
-43.94
-48.94
-55.74
-64.84
-76.19
-88.88
-101.11
-110.27
-113.66
-109.29
-96.66
-77.06
-53.19
-28.35
-5.51
13.36
27.59
37.43
43.63
46.96
48.05
47.36
45.31
42.50
39.59
37.22
35.74
35.19
35.32
35.95
37.00
38.61
40.84
43.41
45.65
46.64
45.59
42.29
37.03
30.56
23.63
16.76
10.09
3.52
-3.13
-9.90
-16.71
-23.32
-29.49
-35.05
-40.04
-44.74
-49.60
-55.14
-61.89
-70.08
-79.50
-89.28
-97.80
-102.91
-102.48
-95.09
-80.72
-60.86
-38.09
-15.30
5.23
22.25
35.56
45.49
52.52
56.94
58.94
58.76
56.86
53.92
50.74
48.08
46.50
46.24
47.21
49.00
51.15
53.20
54.92
56.18
56.80
56.39
54.47
50.64
44.90
37.80
30.26
23.24
17.32
12.49
8.24
3.82
-1.39
-7.69
-14.86
-22.34
-29.41
-35.47
-40.31
-44.18
-47.81
-52.14
-58.06
-66.05
-75.93
-86.69
-96.52
-103.09
-104.14
-98.10
-84.75
-65.37
-42.49
-19.10
2.20
19.72
32.87
41.86
47.27
49.82
50.22
49.24
47.64
46.15
45.21
44.99
45.33
45.98
46.68
47.31
47.92
48.57
49.31
50.02
50.41
50.02
48.41
45.31
40.75
35.12
28.87
22.41
15.92
9.32
2.51
-4.50
-11.44
-17.94
-23.66
-28.54
-32.76
-36.74
-41.08
-46.29
-52.81
-60.76
-69.76
-78.80
-86.27
-90.25
-89.04
-81.74
-68.65
-51.23
-31.70
-12.44
4.64
18.44
28.64
35.48
39.40
40.85
40.27
38.15
35.13
32.00
29.48
28.08
27.95
28.86
30.35
31.95
33.36
34.50
35.46
36.28
36.83
36.72
35.43
32.52
27.89
21.90
15.25
8.84
3.29
-1.19
-4.92
-8.50
-12.54
-17.32
-22.72
-28.30
-33.53
-38.04
-41.81
-45.19
-48.76
-53.23
-59.23
-67.05
-76.42
-86.37
-95.19
-100.73
-101.00
-94.72
-81.89
-63.83
-42.84
-21.58
-2.30
13.63
25.78
34.43
40.17
43.52
44.94
44.80
43.53
41.70
39.98
38.93
38.90
39.96
41.82
44.06
46.16
47.70
48.45
48.36
47.53
46.13
44.22
41.74
38.50
34.32
29.21
23.42
17.40
11.68
6.65
2.40
-1.29
-4.83
-8.69
-13.12
-18.11
-23.38
-28.54
-33.30
-37.56
-41.49
-45.43
-49.80
-55.03
-61.46
-69.28
-78.32
-87.83
-96.34
-101.89
-102.41
-96.55
-84.13
-66.34
-45.42
-23.97
-4.25
12.32
25.19
34.45
40.54
43.91
45.01
44.26
42.18
39.40
36.66
34.62
33.81
34.41
36.25
38.90
41.79
44.45
46.57
47.97
48.55
48.17
46.66
43.92
40.02
35.20
29.79
24.12
18.43
12.90
7.70
2.96
-1.18
-4.78
-8.10
-11.56
-15.54
-20.18
-25.35
-30.68
-35.79
-40.50
-44.93
-49.41
-54.42
-60.44
-67.79
-76.54
-86.30
-96.05
-104.15
-108.53
-107.23
-99.07
-84.11
-63.79
-40.58
-17.27
3.78
21.12
34.34
43.75
50.01
53.72
55.35
55.22
53.73
51.40
48.91
46.91
45.88
45.95
46.93
48.42
50.04
51.49
52.61
53.36
53.64
53.26
51.93
49.40
45.53
40.41
34.33
27.72
21.00
14.52
8.56
3.23
-1.49
-5.84
-10.21
-15.01
-20.47
-26.53
-32.78
-38.63
-43.62
-47.67
-51.16
-54.82
-59.47
-65.79
-74.09
-84.13
-95.04
-105.18
-112.37
-114.28
-109.13
-96.41
-77.11
-53.62
-28.98
-6.05
13.20
27.90
38.18
44.68
48.20
49.44
49.02
47.44
45.24
42.98
41.19
40.31
40.61
42.09
44.52
47.46
50.43
52.99
54.87
55.90
55.99
55.06
53.03
49.78
45.30
39.72
33.34
26.58
19.93
13.76
8.31
3.56
-0.68
-4.78
-9.14
-14.05
-19.59
-25.59
-31.65
-37.39
-42.54
-47.12
-51.45
-56.05
-61.55
-68.49
-77.26
-87.81
-99.40
-110.48
-118.74
-121.60
-117.01
-104.23
-84.23
-59.49
-33.27
-8.56
12.59
29.33
41.77
50.49
56.15
59.29
60.38
59.96
58.60
56.92
55.43
54.47
54.22
54.65
55.67
57.11
58.79
60.50
62.05
63.24
63.81
63.44
61.89
58.99
54.86
49.81
44.30
38.75
33.38
28.21
23.11
18.01
12.93
8.05
3.53
-0.63
-4.64
-8.88
-13.74
-19.36
-25.57
-31.97
-38.05
-43.47
-48.30
-53.01
-58.37
-65.27
-74.26
-85.23
-97.08
-107.80
-114.83
-115.67
-108.70
-93.78
-72.42
-47.40
-21.98
0.94
19.51
33.10
42.04
47.22
49.57
49.87
48.72
46.65
44.20
41.94
40.38
39.85
40.45
42.02
44.25
46.78
49.31
51.55
53.33
54.53
55.00
54.55
53.00
50.15
45.94
40.47
34.03
27.07
20.12
13.65
7.97
3.11
-1.18
-5.36
-9.90
-15.10
-20.95
-27.20
-33.42
-39.23
-44.44
-49.15
-53.69
-58.62
-64.58
-72.15
-81.56
-92.41
-103.39
-112.33
-116.64
-114.09
-103.54
-85.48
-61.96
-36.00
-10.68
11.64
29.70
43.26
52.74
58.76
61.81
62.32
60.73
57.68
54.05
50.75
48.55
47.85
48.65
50.59
53.21
56.02
58.67
60.91
62.51
63.25
62.91
61.29
58.32
54.06
48.69
42.53
35.97
29.39
23.12
17.37
12.24
7.67
3.48
-0.63
-5.01
-9.95
-15.54
-21.65
-27.97
-34.16
-40.03
-45.65
-51.31
-57.44
-64.53
-72.95
-82.85
-93.93
-105.18
-114.87
-120.74
-120.55
-112.83
-97.44
-75.69
-50.11
-23.68
0.90
21.75
37.97
49.50
56.81
60.59
61.57
60.40
57.71
54.18
50.55
47.63
46.09
46.27
48.05
50.87
53.91
56.49
58.17
58.88
58.73
57.83
56.10
53.33
49.30
43.98
37.54
30.39
22.97
15.70
8.79
2.28
-3.92
-10.05
-16.29
-22.72
-29.19
-35.36
-40.83
-45.40
-49.16
-52.60
-56.47
-61.64
-68.78
-78.12
-89.14
-100.49
-109.96
-115.02
-113.40
-103.89
-86.79
-63.87
-37.91
-11.90
11.68
31.31
46.36
56.91
63.32
66.10
65.74
62.84
58.17
52.74
47.66
43.96
42.30
42.76
44.85
47.76
50.66
53.02
54.69
55.76
56.26
56.02
54.66
51.75
47.09
40.82
33.42
25.58
17.93
10.93
4.70
-0.92
-6.34
-12.08
-18.52
-25.77
-33.53
-41.15
-47.95
-53.41
-57.56
-60.97
-64.66
-69.70
-76.93
-86.64
-98.32
-110.66
-121.58
-128.56
-129.13
-121.58
-105.54
-82.28
-54.43
-25.29
2.04
25.38
43.76
57.21
66.34
71.90
74.59
74.96
73.65
71.36
68.88
66.93
66.00
66.19
67.28
68.79
70.28
71.47
72.30
72.89
73.27
73.27
72.40
70.08
65.83
59.58
51.72
43.03
34.39
26.50
19.70
13.93
8.84
3.91
-1.37
-7.32
-13.96
-21.00
-27.92
-34.18
-39.51
-44.03
-48.31
-53.19
-59.54
-67.91
-78.33
-89.99
-101.28
-109.95
-113.56
-110.21
-99.18
-81.24
-58.51
-33.85
-9.98
11.05
28.16
41.06
49.89
54.95
56.64
55.52
52.34
48.03
43.53
39.69
37.13
36.17
36.82
38.81
41.66
44.75
47.50
49.43
50.22
49.68
47.69
44.29
39.62
33.95
27.58
20.81
13.76
6.49
-1.00
-8.58
-16.04
-23.05
-29.31
-34.70
-39.36
-43.75
-48.54
-54.47
-62.00
-70.96
-80.35
-88.30
-92.56
-91.05
-82.67
-67.61
-47.44
-24.62
-1.82
18.68
35.38
47.64
55.46
59.30
59.80
57.68
53.73
48.76
43.55
38.87
35.31
33.25
32.77
33.66
35.41
37.40
38.98
39.63
39.06
37.23
34.31
30.53
26.10
21.13
15.68
9.78
3.49
-3.09
-9.83
-16.61
-23.24
-29.52
-35.24
-40.31
-44.81
-49.09
-53.77
-59.58
-67.10
-76.39
-86.70
-96.36
-103.03
-104.28
-98.40
-85.12
-65.82
-43.12
-20.12
0.61
17.59
30.50
39.81
46.21
50.28
52.40
52.85
51.98
50.26
48.22
46.33
44.92
44.16
44.10
44.64
45.56
46.57
47.38
47.75
47.52
46.54
44.67
41.71
37.50
32.01
25.35
17.88
10.03
2.25
-5.05
-11.57
-17.18
-21.97
-26.24
-30.54
-35.49
-41.70
-49.50
-58.73
-68.58
-77.56
-83.77
-85.29
-80.85
-70.29
-54.64
-35.91
-16.44
1.74
17.32
29.79
39.18
45.73
49.71
51.34
50.94
48.99
46.16
43.19
40.72
39.17
38.64
38.96
39.73
40.50
40.92
40.76
40.01
38.71
36.87
34.35
30.93
26.38
20.62
13.78
6.28
-1.32
-8.44
-14.66
-19.89
-24.38
-28.67
-33.41
-39.16
-46.21
-54.44
-63.22
-71.43
-77.58
-80.10
-77.72
-69.88
-57.01
-40.52
-22.42
-4.82
10.66
23.10
32.37
38.73
42.55
44.09
43.57
41.27
37.71
33.71
30.18
27.87
27.19
28.07
30.03
32.34
34.34
35.50
35.55
34.46
32.31
29.22
25.31
20.64
15.22
9.06
2.24
-5.04
-12.46
-19.62
-26.19
-32.00
-37.11
-41.81
-46.51
-51.73
-57.92
-65.39
-74.03
-83.15
-91.34
-96.72
-97.35
-91.96
-80.38
-63.76
-44.25
-24.29
-5.99
9.43
21.62
30.89
37.75
42.59
45.60
46.89
46.73
45.60
44.19
43.12
42.71
42.95
43.53
44.09
44.43
44.64
44.89
45.27
45.59
45.34
43.89
40.75
35.83
29.54
22.63
15.90
9.91
4.77
0.19
-4.31
-9.20
-14.68
-20.62
-26.69
-32.50
-37.77
-42.48
-46.91
-51.56
-57.06
-63.98
-72.58
-82.59
-93.00
-102.06
-107.60
-107.56
-100.73
-87.16
-68.31
-46.56
-24.54
-4.32
12.89
26.75
37.49
45.44
50.91
54.15
55.54
55.64
55.15
54.77
54.91
55.71
56.99
58.52
60.06
61.55
62.99
64.38
65.57
66.24
65.96
64.38
61.32
56.95
51.69
46.16
40.91
36.29
32.33
28.73
25.07
20.97
16.30
11.22
6.11
1.38
-2.77
-6.45
-10.09
-14.20
-19.16
-25.05
-31.62
-38.44
-45.06
-51.24
-57.00
-62.66
-68.73
-75.82
-84.36
-94.38
-105.18
-115.22
-122.39
-124.45
-119.76
-107.84
-89.61
-67.14
-43.08
-20.00
0.25
16.68
29.10
37.85
43.44
46.35
47.04
46.05
44.05
41.91
40.45
40.22
41.38
43.63
46.45
49.35
51.98
54.16
55.78
56.72
56.82
55.92
53.97
50.96
47.00
42.20
36.72
30.80
24.75
18.97
13.76
9.29
5.46
2.04
-1.35
-5.05
-9.33
-14.25
-19.75
-25.59
-31.48
-37.15
-42.51
-47.70
-53.11
-59.28
-66.72
-75.70
-85.97
-96.57
-105.81
-111.52
-111.57
-104.55
-90.30
-70.13
-46.47
-22.16
0.30
19.30
34.23
45.25
52.82
57.43
59.46
59.32
57.55
54.91
52.26
50.36
49.68
50.33
52.09
54.53
57.19
59.66
61.62
62.83
63.14
62.45
60.72
57.98
54.31
49.85
44.81
39.38
33.75
28.08
22.43
16.83
11.32
5.97
0.83
-4.03
-8.66
-13.22
-17.97
-23.18
-28.98
-35.30
-41.85
-48.26
-54.25
-59.75
-65.04
-70.71
-77.52
-86.01
-96.21
-107.29
-117.49
-124.45
-125.75
-119.67
-105.77
-85.14
-60.09
-33.54
-8.28
13.68
31.30
44.43
53.48
59.12
61.96
62.60
61.55
59.36
56.67
54.11
52.25
51.44
51.78
53.11
55.12
57.46
59.78
61.73
62.96
63.17
62.13
59.80
56.29
51.84
46.77
41.29
35.59
29.78
23.97
18.26
12.76
7.54
2.61
-2.03
-6.47
-10.88
-15.51
-20.61
-26.32
-32.55
-39.01
-45.34
-51.28
-56.87
-62.43
-68.54
-75.78
-84.48
-94.42
-104.67
-113.54
-118.82
-118.35
-110.68
-95.58
-74.34
-49.31
-23.37
0.86
21.57
37.91
49.84
57.76
62.29
64.00
63.45
61.23
57.98
54.46
51.43
49.53
49.12
50.20
52.37
55.10
57.83
60.17
61.90
62.93
63.11
62.26
60.14
56.61
51.70
45.63
38.81
31.68
24.64
17.99
11.85
6.16
0.77
-4.52
-9.88
-15.35
-20.90
-26.42
-31.82
-37.08
-42.22
-47.32
-52.53
-58.16
-64.68
-72.62
-82.33
-93.64
-105.49
-115.94
-122.48
-122.76
-115.36
-100.30
-79.14
-54.46
-29.15
-5.60
14.67
30.97
43.19
51.40
55.80
56.70
54.67
50.64
45.77
41.19
37.81
36.12
36.18
37.71
40.27
43.34
46.51
49.41
51.74
53.26
53.68
52.74
50.20
46.02
40.38
33.72
26.63
19.73
13.41
7.76
2.56
-2.63
-8.26
-14.60
-21.58
-28.81
-35.68
-41.66
-46.54
-50.52
-54.23
-58.51
-64.18
-71.87
-81.62
-92.81
-103.98
-112.97
-117.39
-115.19
-105.34
-88.21
-65.52
-39.92
-14.17
9.39
29.26
44.76
55.76
62.48
65.27
64.66
61.40
56.50
51.11
46.34
43.02
41.53
41.71
43.09
45.09
47.26
49.41
51.49
53.44
54.98
55.55
54.55
51.51
46.36
39.52
31.76
23.95
16.79
10.56
5.10
-0.10
-5.63
-11.91
-18.90
-26.18
-33.08
-38.98
-43.63
-47.29
-50.62
-54.59
-60.10
-67.72
-77.43
-88.39
-98.86
-106.44
-108.61
-103.43
-90.26
-70.02
-44.99
-18.16
7.57
30.05
48.07
61.23
69.68
73.85
74.35
71.95
67.60
62.31
57.03
52.51
49.25
47.40
46.91
47.57
49.12
51.29
53.78
56.27
58.34
59.43
58.94
56.33
51.44
44.57
36.51
28.32
20.84
14.46
8.91
3.47
-2.56
-9.53
-17.16
-24.78
-31.57
-37.06
-41.33
-44.97
-48.89
-54.01
-61.02
-70.13
-80.88
-92.06
-101.72
-107.51
-107.24
-99.56
-84.51
-63.66
-39.65
-15.50
6.31
24.28
37.96
47.56
53.44
55.77
54.57
50.07
42.94
34.48
26.35
20.04
16.46
15.72
17.19
19.89
22.83
25.27
26.80
27.30
26.79
25.36
23.11
20.13
16.45
12.10
7.04
1.30
-5.14
-12.15
-19.53
-26.95
-34.06
-40.62
-46.67
-52.53
-58.76
-65.87
-73.91
-82.18
-89.20
-92.97
-91.58
-83.80
-69.64
-50.32
-28.03
-5.25
15.83
33.72
47.66
57.49
63.27
65.21
63.70
59.38
53.26
46.57
40.56
36.16
33.81
33.37
34.38
36.22
38.42
40.70
42.94
45.02
46.65
47.31
46.30
43.01
37.17
29.07
19.49
9.47
-0.02
-8.50
-16.01
-23.12
-30.64
-39.30
-49.44
-60.80
-72.37
-82.46
-89.06
-90.26
-84.87
-72.83
-55.29
-34.29
-12.18
8.99
27.74
43.25
55.10
63.06
67.00
66.92
63.10
56.21
47.31
37.71
28.75
21.55
16.76
14.47
14.31
15.56
17.43
19.23
20.45
20.75
19.83
17.41
13.23
7.26
-0.21
-8.51
-16.74
-24.13
-30.28
-35.47
-40.59
-46.83
-55.14
-65.75
-77.84
-89.53
-98.34
-101.85
-98.41
-87.63
-70.52
-49.16
-26.14
-3.86
15.94
32.38
45.23
54.61
60.66
63.47
63.13
60.05
54.99
49.11
43.69
39.76
37.91
38.16
40.04
42.88
46.02
48.92
51.30
53.02
53.99
54.07
52.98
50.45
46.29
40.55
33.56
25.89
18.16
10.91
4.39
-1.42
-6.83
-12.30
-18.34
-25.27
-33.15
-41.63
-50.13
-58.04
-64.99
-71.04
-76.71
-82.90
-90.56
-100.40
-112.50
-125.98
-138.85
-148.28
-151.26
-145.50
-130.27
-106.74
-77.69
-46.65
-16.88
9.39
31.11
48.22
61.12
70.36
76.43
79.85
81.27
81.37
80.84
80.23
79.84
79.75
79.90
80.19
80.61
81.27
82.32
83.81
85.57
87.14
87.91
87.28
84.90
80.80
75.27
68.83
62.01
55.27
48.98
43.38
38.46
34.00
29.59
24.78
19.32
13.30
7.15
1.37
-3.70
-8.10
-12.27
-16.83
-22.30
-28.93
-36.61
-44.87
-53.14
-60.90
-67.88
-74.20
-80.30
-86.96
-95.01
-105.10
-117.27
-130.70
-143.46
-152.88
-156.12
-151.02
-136.90
-114.82
-87.32
-57.68
-29.00
-3.55
17.54
34.13
46.69
55.95
62.69
67.52
70.90
73.12
74.38
74.80
74.54
73.81
72.86
71.97
71.41
71.37
71.87
72.71
73.43
73.38
71.96
68.82
64.05
58.08
51.56
45.02
38.68
32.42
25.96
19.02
11.50
3.49
-4.70
-12.70
-20.14
-26.80
-32.68
-38.10
-43.64
-50.04
-57.81
-66.91
-76.48
-84.89
-89.96
-89.63
-82.61
-68.86
-49.69
-27.44
-4.74
16.14
33.76
47.65
57.89
64.86
68.96
70.55
70.11
68.28
65.86
63.61
62.05
61.38
61.48
62.12
63.05
64.14
65.31
66.44
67.36
67.76
67.35
65.89
63.31
59.71
55.36
50.55
45.46
40.24
34.98
29.78
24.80
20.16
15.80
11.46
6.75
1.35
-4.77
-11.33
-17.85
-23.87
-29.25
-34.18
-39.11
-44.53
-50.85
-58.27
-66.76
-75.93
-84.96
-92.52
-96.96
-96.70
-90.71
-79.02
-62.77
-43.92
-24.72
-7.03
7.93
19.73
28.45
34.37
37.80
39.00
38.31
36.22
33.36
30.43
28.04
26.57
26.13
26.65
27.90
29.66
31.68
33.73
35.51
36.75
37.15
36.50
34.74
31.93
28.31
24.21
19.98
15.85
11.88
7.94
3.89
-0.29
-4.43
-8.20
-11.33
-13.78
-15.82
-17.90
-20.38
-23.41
-26.89
-30.58
-34.30
-38.03
-41.88
-45.97
-50.44
-55.40
-60.97
-67.12
-73.53
-79.39
-83.45
-84.29
-80.77
-72.45
-59.84
-44.25
-27.41
-11.08
3.43
15.33
24.38
30.61
34.19
35.30
34.18
31.26
27.26
23.08
19.63
17.52
16.95
17.63
19.05
20.69
22.19
23.37
24.21
24.68
24.70
24.16
23.00
21.23
18.93
16.22
13.11
9.64
5.80
1.67
-2.62
-6.86
-10.87
-14.55
-17.87
-20.87
-23.62
-26.15
-28.53
-30.82
-33.17
-35.77
-38.77
-42.31
-46.44
-51.21
-56.63
-62.66
-68.98
-74.82
-78.98
-80.02
-76.74
-68.60
-56.04
-40.42
-23.65
-7.59
6.38
17.52
25.69
31.02
33.80
34.26
32.76
29.75
25.87
21.84
18.28
15.65
14.17
13.81
14.43
15.79
17.65
19.73
21.73
23.29
24.10
23.86
22.43
19.83
16.25
12.03
7.58
3.28
-0.61
-4.05
-7.25
-10.54
-14.28
-18.64
-23.53
-28.52
-33.08
-36.77
-39.50
-41.55
-43.57
-46.33
-50.49
-56.38
-63.84
-72.09
-79.79
-85.22
-86.66
-82.87
-73.51
-59.34
-42.05
-23.71
-6.29
8.78
20.77
29.52
35.13
37.87
38.03
36.03
32.44
27.99
23.48
19.59
16.79
15.26
14.96
15.73
17.33
19.54
22.10
24.66
26.79
27.98
27.77
25.95
22.55
17.96
12.77
7.56
2.68
-1.83
-6.25
-10.90
-16.05
-21.66
-27.46
-33.06
-38.17
-42.72
-46.90
-51.17
-56.07
-62.16
-69.64
-78.15
-86.57
-93.09
-95.63
-92.45
-82.82
-67.34
-47.76
-26.48
-5.81
12.49
27.45
38.73
46.41
50.70
51.89
50.35
46.62
41.41
35.60
30.09
25.72
23.07
22.36
23.47
25.94
29.08
32.19
34.63
35.96
35.94
34.52
31.77
27.82
22.87
17.11
10.73
3.94
-3.06
-10.09
-16.93
-23.43
-29.46
-35.01
-40.22
-45.42
-51.02
-57.48
-65.09
-73.76
-82.84
-91.03
-96.52
-97.41
-92.22
-80.43
-62.79
-41.13
-17.93
4.35
23.83
39.48
50.96
58.36
61.92
61.88
58.64
52.90
45.79
38.73
33.10
29.81
29.06
30.39
32.89
35.62
37.95
39.59
40.56
40.90
40.54
39.20
36.53
32.23
26.27
18.88
10.57
1.97
-6.32
-13.92
-20.77
-27.11
-33.39
-40.19
-47.94
-56.80
-66.44
-75.88
-83.53
-87.45
-85.85
-77.65
-62.95
-43.10
-20.34
2.76
23.96
41.74
55.35
64.60
69.66
70.81
68.49
63.37
56.43
48.90
42.11
37.10
34.44
34.06
35.40
37.68
40.19
42.51
44.42
45.74
46.13
45.07
42.02
36.71
29.34
20.59
11.41
2.71
-5.03
-11.80
-18.08
-24.61
-32.14
-41.08
-51.34
-62.11
-71.88
-78.69
-80.54
-76.01
-64.75
-47.67
-26.76
-4.53
16.53
34.57
48.49
57.95
63.07
64.24
62.03
57.15
50.54
43.34
36.76
31.81
29.05
28.48
29.65
31.82
34.32
36.70
38.72
40.19
40.78
40.00
37.28
32.30
25.19
16.61
7.54
-1.05
-8.57
-14.98
-20.82
-26.95
-34.13
-42.70
-52.20
-61.34
-68.20
-70.74
-67.40
-57.63
-42.18
-22.84
-1.99
18.03
35.45
49.22
58.95
64.67
66.62
65.20
61.05
55.09
48.50
42.50
38.10
35.80
35.52
36.71
38.56
40.30
41.44
41.83
41.54
40.69
39.26
36.98
33.51
28.51
21.94
14.09
5.59
-2.81
-10.51
-17.20
-22.98
-28.28
-33.70
-39.81
-46.99
-55.18
-63.78
-71.52
-76.73
-77.67
-73.09
-62.68
-47.22
-28.41
-8.41
10.68
27.27
40.42
49.80
55.52
57.94
57.58
55.07
51.15
46.68
42.54
39.47
37.93
37.97
39.26
41.20
43.15
44.61
45.27
45.03
43.85
41.70
38.59
34.56
29.71
24.22
18.24
11.92
5.43
-1.08
-7.43
-13.41
-18.88
-23.73
-28.02
-31.91
-35.73
-39.94
-45.07
-51.48
-59.14
-67.36
-74.76
-79.52
-79.85
-74.53
-63.44
-47.56
-28.76
-9.28
8.83
24.07
35.64
43.39
47.65
49.00
48.19
46.01
43.22
40.52
38.47
37.46
37.63
38.91
40.95
43.25
45.25
46.50
46.79
46.14
44.74
42.80
40.41
37.48
33.89
29.55
24.55
19.17
13.81
8.86
4.52
0.82
-2.45
-5.57
-8.83
-12.40
-16.37
-20.65
-25.10
-29.54
-33.82
-37.95
-42.03
-46.37
-51.38
-57.48
-64.88
-73.39
-82.24
-90.06
-95.09
-95.55
-90.27
-79.07
-62.94
-43.77
-23.89
-5.40
10.20
22.22
30.62
35.78
38.24
38.59
37.40
35.30
32.93
30.91
29.76
29.78
31.00
33.14
35.76
38.39
40.67
42.47
43.71
44.34
44.14
42.84
40.23
36.37
31.59
26.48
21.65
17.48
14.06
11.16
8.41
5.43
2.05
-1.65
-5.43
-8.96
-12.05
-14.76
-17.42
-20.52
-24.40
-29.16
-34.52
-39.98
-45.05
-49.48
-53.38
-57.16
-61.41
-66.71
-73.37
-81.27
-89.67
-97.22
-102.13
-102.64
-97.47
-86.41
-70.42
-51.40
-31.66
-13.26
2.39
14.71
23.69
29.60
32.77
33.55
32.35
29.81
26.80
24.23
22.86
23.04
24.66
27.26
30.24
33.14
35.70
37.81
39.39
40.26
40.15
38.82
36.24
32.63
28.40
23.97
19.67
15.62
11.79
8.06
4.29
0.35
-3.80
-8.04
-12.07
-15.49
-18.06
-19.89
-21.54
-23.88
-27.70
-33.35
-40.56
-48.54
-56.34
-63.20
-68.87
-73.63
-78.25
-83.70
-90.84
-100.09
-111.04
-122.29
-131.57
-136.24
-134.08
-124.00
-106.51
-83.60
-58.12
-33.02
-10.60
7.86
22.07
32.42
39.56
44.17
46.80
47.99
48.27
48.23
48.40
49.19
50.77
53.08
55.87
58.92
62.01
65.06
67.92
70.43
72.24
72.99
72.36
70.26
66.85
62.51
57.66
52.74
48.04
43.74
39.91
36.52
33.50
30.71
28.01
25.26
22.31
19.05
15.43
11.42
7.12
2.61
-1.99
-6.68
-11.57
-16.90
-22.95
-29.81
-37.29
-44.98
-52.32
-58.93
-64.78
-70.24
-76.01
-82.88
-91.50
-102.11
-114.29
-126.76
-137.49
-143.91
-143.59
-134.92
-117.80
-93.76
-65.60
-36.61
-9.71
13.22
31.41
44.96
54.38
60.33
63.43
64.31
63.71
62.46
61.40
61.25
62.37
64.77
68.09
71.81
75.40
78.54
81.11
83.16
84.70
85.60
85.52
84.11
81.16
76.74
71.21
65.18
59.24
53.81
49.03
44.81
40.81
36.68
32.16
27.25
22.18
17.34
13.03
9.32
5.93
2.26
-2.29
-8.16
-15.35
-23.42
-31.64
-39.29
-45.90
-51.49
-56.54
-61.88
-68.37
-76.68
-86.98
-98.66
-110.28
-119.67
-124.28
-121.88
-111.25
-92.69
-68.09
-40.43
-12.97
11.58
31.57
46.54
56.86
63.29
66.61
67.49
66.49
64.17
61.15
58.13
55.82
54.78
55.30
57.31
60.42
64.01
67.45
70.27
72.16
73.01
72.74
71.25
68.47
64.39
59.17
53.12
46.66
40.19
33.97
28.09
22.56
17.33
12.35
7.59
2.94
-1.70
-6.48
-11.48
-16.67
-21.91
-27.00
-31.79
-36.31
-40.77
-45.61
-51.39
-58.68
-67.74
-78.23
-89.02
-98.18
-103.37
-102.51
-94.51
-79.64
-59.56
-36.77
-13.94
6.80
24.10
37.38
46.53
51.71
53.29
51.80
48.03
42.88
37.32
32.13
27.89
24.92
23.34
23.20
24.42
26.82
30.09
33.74
37.20
39.83
41.04
40.32
37.48
32.63
26.23
19.06
11.89
5.28
-0.64
-6.10
-11.51
-17.16
-23.03
-28.77
-33.86
-37.94
-40.93
-43.15
-45.22
-47.93
-52.05
-58.11
-66.10
-75.25
-83.95
-90.04
-91.30
-86.22
-74.52
-57.27
-36.56
-14.88
5.61
23.46
38.01
49.15
57.02
61.77
63.60
62.74
59.67
55.08
49.84
44.79
40.61
37.73
36.35
36.41
37.72
39.88
42.32
44.36
45.29
44.62
42.15
38.06
32.76
26.69
20.13
13.19
5.86
-1.82
-9.65
-17.28
-24.29
-30.42
-35.58
-39.99
-44.05
-48.32
-53.36
-59.64
-67.26
-75.76
-84.00
-90.25
-92.65
-89.72
-80.92
-66.89
-49.29
-30.28
-11.93
4.28
17.57
27.76
34.99
39.49
41.44
41.04
38.67
34.91
30.55
26.44
23.26
21.37
20.76
21.22
22.46
24.27
26.44
28.71
30.67
31.75
31.44
29.46
25.86
21.02
15.48
9.66
3.81
-2.03
-7.88
-13.66
-19.15
-24.03
-27.99
-30.97
-33.15
-35.06
-37.38
-40.92
-46.33
-53.84
-63.01
-72.57
-80.51
-84.52
-82.67
-74.02
-59.04
-39.45
-17.71
3.70
22.87
38.73
50.97
59.68
65.12
67.51
67.17
64.54
60.35
55.51
50.97
47.52
45.62
45.37
46.56
48.75
51.42
54.08
56.31
57.81
58.37
57.82
56.03
52.88
48.41
42.76
36.32
29.63
23.23
17.49
12.50
8.07
3.87
-0.42
-4.96
-9.70
-14.42
-18.89
-22.94
-26.70
-30.52
-34.91
-40.41
-47.25
-55.26
-63.83
-72.15
-79.50
-85.60
-90.76
-95.76
-101.67
-109.38
-119.38
-131.34
-144.01
-155.19
-162.16
-162.31
-153.92
-136.83
-112.56
-83.99
-54.47
-26.93
-3.28
15.83
30.69
42.01
50.56
56.89
61.39
64.37
66.14
67.05
67.46
67.65
67.76
67.89
68.10
68.48
69.19
70.37
72.03
73.99
75.82
76.99
76.97
75.39
72.17
67.50
61.83
55.73
49.75
44.23
39.22
34.54
29.77
24.62
18.99
13.08
7.33
2.17
-2.17
-5.82
-9.23
-13.00
-17.60
-23.24
-29.77
-36.80
-43.89
-50.71
-57.16
-63.38
-69.76
-76.82
-85.12
-94.99
-106.27
-117.90
-127.93
-133.77
-132.95
-123.96
-106.84
-83.33
-56.26
-28.69
-3.11
18.97
36.94
50.83
60.94
67.70
71.65
73.53
74.10
74.07
73.91
73.83
73.89
73.99
74.11
74.26
74.49
74.94
75.68
76.72
77.88
78.75
78.81
77.58
74.83
70.69
65.57
60.01
54.47
49.20
44.23
39.40
34.53
29.49
24.28
19.12
14.32
10.18
6.78
3.88
0.99
-2.50
-7.01
-12.64
-19.11
-25.93
-32.55
-38.61
-44.00
-48.91
-53.80
-59.30
-66.05
-74.39
-84.07
-93.92
-102.01
-106.01
-103.92
-94.78
-79.04
-58.47
-35.67
-13.23
6.85
23.45
36.30
45.61
51.85
55.48
57.00
56.96
55.92
54.43
52.88
51.52
50.42
49.64
49.27
49.47
50.38
52.03
54.17
56.32
57.84
58.18
57.02
54.36
50.50
45.90
41.02
36.19
31.59
27.27
23.16
19.15
15.14
11.05
6.88
2.66
-1.55
-5.71
-9.79
-13.82
-17.83
-21.79
-25.71
-29.60
-33.48
-37.50
-41.86
-46.82
-52.67
-59.56
-67.35
-75.40
-82.49
-86.99
-87.30
-82.31
-71.90
-57.04
-39.47
-21.24
-4.13
10.64
22.48
31.23
36.96
39.87
40.34
38.97
36.51
33.76
31.27
29.36
28.07
27.38
27.30
27.87
29.09
30.78
32.63
34.24
35.29
35.58
35.03
33.61
31.29
28.04
23.96
19.26
14.29
9.39
4.84
0.81
-2.66
-5.65
-8.33
-10.94
-13.75
-16.94
-20.54
-24.34
-28.04
-31.41
-34.40
-37.21
-40.21
-43.82
-48.40
-54.09
-60.79
-67.93
-74.51
-79.09
-80.14
-76.46
-67.65
-54.28
-37.82
-20.25
-3.49
10.90
22.06
29.73
34.06
35.52
34.68
32.14
28.52
24.44
20.50
17.29
15.27
14.70
15.56
17.49
19.94
22.29
24.11
25.24
25.71
25.64
25.06
23.80
21.62
18.34
14.08
9.23
4.35
-0.08
-3.81
-6.93
-9.79
-12.81
-16.35
-20.47
-25.02
-29.57
-33.69
-37.03
-39.58
-41.66
-43.87
-46.89
-51.26
-57.21
-64.44
-72.09
-78.81
-82.96
-83.02
-78.00
-67.84
-53.47
-36.60
-19.23
-3.14
10.47
21.02
28.39
32.74
34.32
33.54
30.96
27.32
23.45
20.10
17.77
16.67
16.74
17.77
19.45
21.47
23.55
25.43
26.91
27.83
28.03
27.36
25.62
22.67
18.49
13.31
7.58
1.88
-3.31
-7.74
-11.56
-15.15
-18.95
-23.19
-27.81
-32.54
-37.05
-41.17
-44.92
-48.56
-52.47
-57.07
-62.75
-69.75
-77.93
-86.53
-94.14
-98.87
-98.87
-92.99
-81.13
-64.41
-44.75
-24.37
-5.17
11.54
24.99
34.87
41.17
44.12
44.21
42.19
38.95
35.37
32.15
29.76
28.44
28.23
29.11
30.93
33.44
36.30
39.08
41.34
42.67
42.72
41.30
38.39
34.13
28.85
23.01
17.06
11.33
5.88
0.60
-4.77
-10.38
-16.22
-22.06
-27.58
-32.53
-36.85
-40.76
-44.72
-49.37
-55.35
-63.06
-72.43
-82.67
-92.21
-98.95
-100.70
-95.88
-84.10
-66.27
-44.47
-21.29
0.82
20.03
35.37
46.56
53.75
57.33
57.77
55.63
51.64
46.66
41.65
37.51
34.95
34.32
35.59
38.36
42.03
45.96
49.59
52.46
54.18
54.38
52.71
49.01
43.45
36.58
29.21
22.14
15.80
10.18
4.85
-0.74
-6.92
-13.64
-20.50
-26.96
-32.65
-37.56
-42.04
-46.72
-52.34
-59.50
-68.42
-78.72
-89.27
-98.17
-103.11
-101.91
-93.27
-77.28
-55.54
-30.68
-5.63
17.16
36.20
50.90
61.26
67.50
69.92
68.90
65.16
59.75
53.91
48.82
45.32
43.77
44.16
46.16
49.36
53.25
57.27
60.82
63.27
64.06
62.75
59.20
53.59
46.45
38.59
30.79
23.68
17.47
11.90
6.45
0.59
-6.04
-13.35
-20.95
-28.20
-34.56
-39.79
-44.07
-48.08
-52.82
-59.34
-68.30
-79.54
-91.90
-103.21
-110.67
-111.64
-104.38
-88.75
-66.30
-39.85
-12.71
12.24
33.13
49.23
60.65
67.90
71.53
72.06
70.06
66.33
61.91
57.89
55.17
54.19
54.89
56.82
59.39
62.06
64.40
66.19
67.31
67.64
67.02
65.28
62.19
57.65
51.68
44.56
36.78
28.94
21.58
14.99
9.16
3.78
-1.58
-7.29
-13.51
-20.08
-26.60
-32.68
-38.04
-42.75
-47.25
-52.25
-58.50
-66.62
-76.73
-88.32
-100.05
-109.88
-115.45
-114.58
-105.99
-89.76
-67.37
-41.37
-14.68
10.11
31.22
47.76
59.60
67.08
70.76
71.30
69.48
66.16
62.29
58.80
56.43
55.62
56.46
58.66
61.72
65.09
68.27
70.84
72.44
72.77
71.62
68.91
64.80
59.67
53.99
48.14
42.42
36.88
31.48
26.09
20.62
15.03
9.43
4.05
-0.86
-5.11
-8.83
-12.41
-16.42
-21.31
-27.19
-33.77
-40.54
-47.04
-53.12
-58.97
-65.07
-71.99
-80.19
-89.84
-100.55
-111.23
-120.03
-124.62
-122.82
-113.33
-96.30
-73.30
-47.01
-20.33
4.28
25.23
41.82
53.98
61.95
66.10
66.89
64.95
61.23
56.86
53.05
50.82
50.65
52.47
55.71
59.58
63.37
66.66
69.21
70.86
71.42
70.63
68.31
64.49
59.45
53.66
47.57
41.54
35.69
30.02
24.47
19.02
13.73
8.71
4.06
-0.20
-4.22
-8.27
-12.69
-17.69
-23.29
-29.26
-35.28
-41.06
-46.59
-52.07
-57.99
-64.88
-73.22
-83.16
-94.26
-105.32
-114.43
-119.26
-117.67
-108.45
-91.75
-69.19
-43.47
-17.55
5.99
25.53
40.39
50.68
56.90
59.66
59.55
57.22
53.44
49.11
45.17
42.39
41.16
41.45
42.90
44.97
47.22
49.41
51.39
53.01
54.04
54.10
52.76
49.76
45.08
39.00
32.07
24.92
18.12
11.93
6.29
0.83
-4.86
-10.99
-17.40
-23.61
-29.05
-33.33
-36.46
-38.86
-41.20
-44.28
-48.85
-55.50
-64.38
-74.99
-85.96
-95.10
-99.86
-98.12
-88.94
-72.87
-51.87
-28.65
-5.96
14.09
30.23
42.03
49.58
53.34
53.88
51.84
47.98
43.12
38.13
33.83
30.77
29.15
28.88
29.69
31.30
33.54
36.22
39.03
41.37
42.50
41.74
38.75
33.61
26.84
19.13
11.14
3.36
-3.97
-10.82
-17.37
-23.88
-30.53
-37.31
-43.91
-49.93
-55.05
-59.35
-63.37
-68.04
-74.36
-82.92
-93.58
-105.17
-115.61
-122.33
-122.92
-115.88
-101.08
-79.91
-54.88
-28.95
-4.73
15.98
32.33
44.24
52.10
56.45
57.85
56.90
54.31
50.87
47.47
44.89
43.66
43.89
45.31
47.42
49.73
51.87
53.64
54.91
55.47
54.95
52.96
49.22
43.78
37.06
29.73
22.43
15.57
9.16
2.95
-3.45
-10.25
-17.37
-24.44
-30.99
-36.63
-41.28
-45.26
-49.26
-54.21
-60.96
-70.00
-81.01
-92.68
-102.78
-108.63
-107.88
-99.28
-83.17
-61.44
-36.94
-12.64
9.09
26.91
40.42
49.82
55.58
58.24
58.40
56.79
54.25
51.66
49.72
48.86
49.14
50.37
52.20
54.24
56.22
57.91
59.20
60.02
60.26
59.76
58.21
55.28
50.73
44.61
37.32
29.53
22.04
15.43
9.92
5.29
1.02
-3.45
-8.48
-14.10
-20.00
-25.71
-30.83
-35.23
-39.14
-43.00
-47.44
-53.07
-60.37
-69.53
-80.18
-91.17
-100.57
-105.97
-105.10
-96.66
-80.86
-59.43
-35.16
-11.03
10.57
28.26
41.65
50.99
56.74
59.39
59.36
57.16
53.53
49.37
45.68
43.29
42.66
43.80
46.30
49.47
52.64
55.27
57.06
57.87
57.71
56.59
54.50
51.44
47.43
42.57
36.98
30.92
24.71
18.70
13.21
8.43
4.32
0.64
-2.97
-6.83
-11.08
-15.67
-20.37
-24.94
-29.27
-33.41
-37.58
-42.12
-47.43
-53.92
-61.89
-71.32
-81.66
-91.65
-99.41
-102.80
-100.03
-90.34
-74.24
-53.51
-30.64
-8.17
11.90
28.43
41.00
49.71
54.81
56.67
55.73
52.68
48.44
44.07
40.60
38.73
38.70
40.32
43.07
46.32
49.45
52.02
53.76
54.58
54.41
53.22
50.96
47.54
42.98
37.42
31.22
24.91
18.98
13.79
9.35
5.35
1.33
-3.11
-8.07
-13.29
-18.31
-22.63
-25.99
-28.48
-30.56
-32.85
-36.08
-40.83
-47.42
-55.77
-65.23
-74.47
-81.65
-84.77
-82.26
-73.55
-59.27
-41.18
-21.57
-2.66
13.88
27.17
36.92
43.24
46.35
46.58
44.42
40.61
36.08
31.82
28.70
27.21
27.40
28.91
31.15
33.52
35.61
37.25
38.48
39.34
39.72
39.33
37.83
34.94
30.64
25.24
19.22
13.13
7.40
2.24
-2.34
-6.52
-10.58
-14.75
-19.15
-23.70
-28.19
-32.35
-36.05
-39.41
-42.77
-46.70
-51.73
-58.24
-66.20
-75.01
-83.48
-89.92
-92.50
-89.77
-81.17
-67.28
-49.71
-30.62
-12.08
4.33
17.75
27.90
34.83
38.78
40.09
39.26
36.94
33.89
30.88
28.50
27.15
26.92
27.71
29.21
31.08
32.99
34.68
36.00
36.83
37.02
36.30
34.42
31.25
26.90
21.71
16.24
11.01
6.34
2.25
-1.50
-5.29
-9.41
-13.94
-18.66
-23.18
-27.16
-30.46
-33.29
-36.16
-39.72
-44.56
-51.02
-58.95
-67.68
-75.98
-82.22
-84.69
-82.07
-73.86
-60.64
-43.98
-25.96
-8.67
6.36
18.31
27.05
32.84
36.16
37.40
36.99
35.33
32.94
30.34
28.05
26.43
25.62
25.59
26.13
27.09
28.31
29.68
30.99
31.92
32.06
31.03
28.66
25.03
20.46
15.34
9.99
4.57
-0.90
-6.39
-11.82
-17.06
-21.91
-26.28
-30.22
-33.94
-37.80
-42.19
-47.49
-53.86
-61.11
-68.59
-75.18
-79.45
-80.00
-75.89
-66.94
-53.88
-38.22
-21.84
-6.54
6.41
16.38
23.31
27.47
29.26
28.99
27.00
23.71
19.69
15.70
12.46
10.59
10.37
11.72
14.23
17.30
20.22
22.42
23.51
23.34
22.00
19.63
16.40
12.38
7.66
2.32
-3.46
-9.45
-15.40
-21.13
-26.55
-31.63
-36.40
-40.94
-45.45
-50.31
-56.00
-62.90
-70.99
-79.63
-87.50
-92.81
-93.85
-89.47
-79.48
-64.73
-46.89
-27.92
-9.65
6.59
20.04
30.38
37.61
41.86
43.40
42.67
40.31
37.13
33.96
31.53
30.39
30.78
32.69
35.86
39.77
43.75
47.06
49.06
49.32
47.70
44.36
39.64
34.01
27.93
21.79
15.80
10.02
4.34
-1.37
-7.27
-13.34
-19.44
-25.37
-30.96
-36.17
-41.12
-46.13
-51.75
-58.54
-66.84
-76.48
-86.43
-94.91
-99.68
-98.75
-91.07
-76.92
-57.83
-36.13
-14.23
5.94
23.20
37.06
47.47
54.53
58.44
59.54
58.39
55.84
52.94
50.66
49.66
50.11
51.74
54.02
56.44
58.63
60.44
61.82
62.65
62.68
61.57
59.03
54.94
49.49
43.13
36.46
29.96
23.89
18.17
12.52
6.65
0.41
-6.08
-12.47
-18.36
-23.46
-27.77
-31.64
-35.74
-40.84
-47.67
-56.57
-67.16
-78.25
-87.83
-93.57
-93.42
-86.35
-72.69
-54.09
-33.02
-12.04
6.85
22.49
34.54
43.16
48.68
51.42
51.69
49.92
46.76
43.08
39.84
37.86
37.62
39.12
41.96
45.46
48.96
51.96
54.16
55.34
55.27
53.65
50.27
45.16
38.75
31.70
24.74
18.29
12.39
6.76
1.03
-5.04
-11.39
-17.72
-23.70
-29.13
-34.08
-38.89
-44.13
-50.38
-58.05
-67.08
-76.84
-85.98
-92.64
-94.88
-91.17
-80.97
-64.89
-44.60
-22.38
-0.55
19.08
35.41
47.99
56.82
62.09
64.12
63.40
60.69
56.99
53.37
50.70
49.48
49.73
51.11
53.13
55.32
57.37
59.08
60.28
60.73
60.17
58.31
54.91
49.93
43.54
36.18
28.46
21.09
14.58
9.17
4.64
0.43
-4.12
-9.49
-15.70
-22.34
-28.71
-34.17
-38.46
-41.86
-45.09
-49.10
-54.75
-62.56
-72.45
-83.55
-94.18
-102.09
-104.89
-100.85
-89.41
-71.58
-49.62
-26.41
-4.55
14.19
29.09
40.24
48.12
53.24
56.02
56.80
56.01
54.17
51.92
49.81
48.29
47.57
47.64
48.33
49.41
50.70
52.08
53.49
54.75
55.53
55.35
53.76
50.49
45.61
39.48
32.71
25.90
19.55
13.94
9.17
5.10
1.43
-2.25
-6.37
-11.20
-16.67
-22.44
-27.98
-32.89
-37.06
-40.73
-44.41
-48.80
-54.50
-61.87
-70.77
-80.35
-89.07
-94.85
-95.70
-90.30
-78.59
-61.76
-41.99
-21.70
-2.92
13.04
25.61
34.72
40.53
43.27
43.32
41.20
37.73
33.85
30.53
28.48
28.03
29.09
31.21
33.85
36.51
38.84
40.69
41.98
42.63
42.48
41.33
38.98
35.32
30.49
24.78
18.70
12.77
7.40
2.69
-1.52
-5.62
-9.94
-14.64
-19.60
-24.52
-29.06
-33.06
-36.62
-40.01
-43.66
-48.00
-53.41
-60.16
-68.24
-77.21
-86.09
-93.37
-97.30
-96.31
-89.49
-76.92
-59.73
-39.81
-19.37
-0.36
15.87
28.68
38.03
44.18
47.51
48.35
47.10
44.28
40.62
36.96
34.08
32.53
32.47
33.73
35.88
38.41
40.89
43.00
44.56
45.43
45.47
44.45
42.18
38.52
33.57
27.68
21.43
15.40
9.99
5.24
0.85
-3.65
-8.66
-14.30
-20.36
-26.43
-32.00
-36.76
-40.64
-43.89
-46.98
-50.48
-55.01
-61.08
-68.98
-78.57
-89.04
-98.78
-105.59
-107.24
-102.11
-89.92
-71.83
-50.18
-27.67
-6.71
11.19
25.41
35.96
43.17
47.45
49.22
49.01
47.46
45.27
43.09
41.33
40.15
39.51
39.24
39.21
39.39
39.88
40.82
42.21
43.80
45.08
45.31
43.84
40.35
34.99
28.38
21.39
14.83
9.19
4.52
0.42
-3.69
-8.33
-13.75
-19.79
-26.01
-31.87
-36.99
-41.31
-45.17
-49.16
-53.98
-60.21
-68.07
-77.07
-86.01
-92.99
-95.92
-93.11
-83.88
-68.88
-49.87
-29.19
-9.11
8.73
23.40
34.60
42.32
46.70
47.94
46.39
42.62
37.47
31.97
27.21
24.11
23.21
24.45
27.28
30.82
34.15
36.64
38.01
38.25
37.42
35.54
32.54
28.39
23.14
16.98
10.18
2.97
-4.44
-11.88
-19.14
-25.97
-32.21
-37.86
-43.13
-48.46
-54.41
-61.45
-69.70
-78.74
-87.40
-93.88
-96.20
-92.68
-82.64
-66.69
-46.56
-24.62
-3.22
15.82
31.44
43.20
51.12
55.42
56.43
54.66
50.81
45.76
40.52
36.11
33.31
32.52
33.64
36.14
39.20
41.98
43.90
44.65
44.23
42.73
40.23
36.72
32.15
26.44
19.63
11.89
3.49
-5.14
-13.56
-21.36
-28.33
-34.51
-40.20
-45.94
-52.34
-59.94
-68.94
-79.04
-89.26
-97.93
-103.02
-102.57
-95.35
-81.29
-61.62
-38.60
-14.89
7.12
25.78
40.32
50.71
57.35
60.75
61.40
59.78
56.49
52.36
48.39
45.54
44.48
45.34
47.68
50.69
53.54
55.64
56.77
56.95
56.26
54.72
52.19
48.53
43.59
37.39
30.08
21.93
13.31
4.64
-3.68
-11.32
-18.12
-24.12
-29.56
-34.90
-40.71
-47.54
-55.71
-64.95
-74.20
-81.64
-85.07
-82.57
-73.21
-57.44
-37.00
-14.47
7.53
26.93
42.55
54.07
61.75
66.06
67.51
66.52
63.60
59.44
54.92
51.01
48.46
47.65
48.41
50.19
52.29
54.11
55.28
55.66
55.24
53.99
51.88
48.82
44.73
39.59
33.43
26.36
18.59
10.50
2.48
-5.02
-11.69
-17.42
-22.33
-26.83
-31.47
-36.90
-43.65
-51.89
-61.25
-70.58
-78.18
-82.05
-80.50
-72.74
-59.14
-41.26
-21.36
-1.80
15.56
29.62
40.06
46.99
50.71
51.46
49.56
45.55
40.31
34.98
30.73
28.36
28.09
29.55
31.95
34.47
36.49
37.75
38.28
38.23
37.66
36.45
34.27
30.74
25.62
18.97
11.24
3.17
-4.48
-11.16
-16.72
-21.38
-25.59
-29.88
-34.65
-40.22
-46.67
-53.80
-61.01
-67.23
-71.04
-70.99
-66.15
-56.41
-42.67
-26.54
-9.87
5.73
19.20
30.01
37.99
43.05
45.22
44.65
41.81
37.62
33.14
29.45
27.21
26.56
27.18
28.56
30.15
31.52
32.39
32.52
31.76
30.05
27.45
24.14
20.23
15.72
10.51
4.51
-2.22
-9.33
-16.31
-22.68
-28.21
-32.99
-37.37
-41.81
-46.72
-52.44
-59.16
-66.83
-74.97
-82.55
-88.02
-89.62
-85.95
-76.47
-61.84
-43.77
-24.53
-6.25
9.55
22.17
31.55
38.00
41.86
43.42
42.96
40.92
37.93
34.77
32.17
30.60
30.20
30.77
31.93
33.31
34.59
35.55
35.95
35.57
34.19
31.67
28.07
23.61
18.60
13.28
7.74
1.97
-4.10
-10.44
-16.80
-22.80
-28.02
-32.27
-35.65
-38.62
-41.87
-46.13
-51.95
-59.41
-68.06
-76.81
-84.06
-87.99
-87.00
-80.22
-67.79
-50.96
-31.78
-12.51
4.98
19.52
30.71
38.72
43.84
46.38
46.64
44.98
42.03
38.65
35.77
34.12
34.01
35.34
37.61
40.19
42.51
44.17
45.02
45.04
44.29
42.81
40.54
37.40
33.26
28.12
22.15
15.70
9.30
3.46
-1.47
-5.44
-8.76
-11.95
-15.51
-19.74
-24.58
-29.69
-34.61
-39.01
-42.89
-46.52
-50.44
-55.23
-61.42
-69.22
-78.39
-88.01
-96.54
-102.07
-102.77
-97.48
-86.10
-69.68
-50.07
-29.47
-9.88
7.17
20.76
30.50
36.46
39.05
38.92
36.89
33.84
30.62
28.01
26.57
26.57
27.93
30.25
32.98
35.59
37.73
39.26
40.14
40.34
39.76
38.23
35.60
31.79
26.89
21.07
14.67
8.06
1.61
-4.45
-10.10
-15.45
-20.65
-25.70
-30.47
-34.75
-38.45
-41.80
-45.33
-49.76
-55.79
-63.80
-73.64
-84.47
-94.76
-102.46
-105.51
-102.40
-92.65
-77.03
-57.37
-35.97
-15.03
3.78
19.50
31.69
40.30
45.44
47.45
46.85
44.40
41.03
37.71
35.32
34.39
35.08
37.10
39.92
43.03
46.03
48.71
50.89
52.27
52.40
50.80
47.21
41.78
35.09
27.96
21.15
15.10
9.83
5.03
0.27
-4.82
-10.41
-16.44
-22.68
-28.83
-34.64
-40.04
-45.20
-50.54
-56.62
-64.03
-73.08
-83.57
-94.51
-104.12
-110.16
-110.46
-103.67
-89.67
-69.84
-46.54
-22.55
-0.28
18.69
33.71
44.80
52.30
56.62
58.10
57.23
54.72
51.54
48.75
47.25
47.42
49.10
51.69
54.48
56.94
58.87
60.31
61.27
61.50
60.58
57.98
53.48
47.24
39.88
32.19
24.85
18.16
11.98
5.92
-0.42
-7.23
-14.39
-21.55
-28.31
-34.37
-39.70
-44.53
-49.41
-55.06
-62.16
-71.05
-81.37
-91.84
-100.37
-104.50
-102.16
-92.42
-75.84
-54.34
-30.59
-7.23
13.72
31.07
44.37
53.59
58.92
60.69
59.46
56.08
51.63
47.22
43.84
42.07
42.07
43.61
46.21
49.29
52.33
54.91
56.66
57.28
56.46
53.95
49.67
43.82
36.86
29.44
22.13
15.23
8.67
2.11
-4.85
-12.37
-20.25
-27.96
-34.91
-40.75
-45.58
-49.98
-54.86
-61.13
-69.41
-79.74
-91.34
-102.57
-111.18
-114.73
-111.30
-100.02
-81.48
-57.55
-30.96
-4.53
19.42
39.38
54.73
65.44
71.86
74.56
74.23
71.71
67.98
64.10
61.02
59.44
59.59
61.15
63.45
65.72
67.45
68.47
68.95
69.04
68.71
67.58
65.13
60.92
54.92
47.48
39.24
30.93
23.09
16.05
9.86
4.28
-1.05
-6.58
-12.63
-19.23
-26.08
-32.74
-38.82
-44.23
-49.30
-54.68
-61.21
-69.55
-80.00
-92.21
-105.03
-116.55
-124.33
-125.96
-119.73
-105.24
-83.58
-57.18
-29.05
-2.06
21.69
41.13
56.03
66.70
73.58
77.11
77.71
75.94
72.60
68.69
65.29
63.27
63.04
64.48
67.02
69.88
72.34
73.97
74.58
74.22
72.96
70.80
67.64
63.38
57.97
51.55
44.44
37.05
29.80
22.95
16.62
10.73
5.11
-0.43
-6.05
-11.83
-17.78
-23.79
-29.72
-35.37
-40.60
-45.49
-50.35
-55.72
-62.26
-70.53
-80.67
-92.22
-103.96
-113.93
-119.84
-119.52
-111.65
-96.24
-74.73
-49.64
-23.86
0.14
20.70
37.10
49.29
57.49
62.01
63.17
61.48
57.69
52.79
47.89
43.95
41.59
41.00
41.96
43.97
46.47
49.01
51.28
53.08
54.16
54.13
52.58
49.21
44.05
37.52
30.33
23.23
16.77
11.17
6.30
1.77
-2.92
-8.22
-14.35
-21.21
-28.33
-35.04
-40.70
-45.07
-48.46
-51.67
-55.73
-61.53
-69.51
-79.46
-90.41
-100.68
-108.13
-110.52
-106.19
-94.53
-76.34
-53.61
-29.05
-5.31
15.55
32.38
44.86
53.21
57.94
59.66
58.97
56.53
53.05
49.27
45.90
43.48
42.30
42.31
43.18
44.50
45.91
47.29
48.66
49.98
51.00
51.15
49.74
46.21
40.45
32.90
24.45
16.16
8.85
2.87
-2.00
-6.36
-10.94
-16.24
-22.31
-28.79
-35.10
-40.72
-45.44
-49.39
-53.08
-57.19
-62.45
-69.41
-78.22
-88.28
-98.12
-105.52
-108.08
-103.93
-92.43
-74.48
-52.20
-28.32
-5.37
14.81
31.28
43.76
52.36
57.30
58.87
57.52
53.94
49.14
44.29
40.48
38.44
38.36
39.87
42.31
44.97
47.44
49.53
51.22
52.51
53.20
52.93
51.32
48.10
43.25
37.08
30.19
23.30
17.01
11.60
6.88
2.34
-2.60
-8.32
-14.73
-21.31
-27.40
-32.44
-36.31
-39.32
-42.12
-45.55
-50.33
-56.96
-65.52
-75.57
-85.95
-94.91
-100.28
-100.07
-93.03
-79.17
-59.81
-37.39
-14.69
5.83
22.62
35.16
43.73
48.97
51.42
51.43
49.26
45.25
40.09
34.62
29.78
26.23
24.28
23.88
24.81
26.78
29.48
32.51
35.40
37.55
38.36
37.32
34.21
29.17
22.70
15.56
8.55
2.20
-3.33
-8.30
-13.15
-18.25
-23.65
-29.17
-34.50
-39.43
-43.98
