1629287485.00
64.000000
-0.00
-0.00
-0.00
-0.00
-0.00
-0.00
-0.00
-0.00
-0.00
-0.00
0.00
0.01
0.01
-0.00
-0.03
-0.05
-0.05
0.00
0.13
0.36
0.66
1.01
1.37
1.72
2.06
2.40
2.79
3.24
3.80
4.42
5.06
5.66
6.20
6.68
7.15
7.68
8.31
9.14
10.09
11.04
11.88
12.56
13.14
13.76
14.65
15.96
17.91
20.32
22.90
25.38
27.58
29.57
31.68
34.32
37.81
42.54
48.15
54.10
59.83
64.97
69.58
74.14
79.34
85.71
93.76
103.00
112.62
121.73
129.77
136.75
143.30
150.75
157.77
166.64
177.95
191.79
206.97
220.57
228.25
225.36
208.53
176.87
132.76
80.05
23.07
-34.94
-92.44
-149.16
-205.23
-260.37
-313.74
-363.86
-409.80
-450.87
-486.48
-515.77
-537.34
-549.43
-550.27
-538.74
-514.61
-479.09
-434.30
-382.91
-327.55
-270.48
-213.39
-157.51
-103.85
-53.25
-6.74
34.78
70.59
100.39
124.33
142.96
157.06
167.40
174.61
179.05
180.89
180.25
177.32
172.46
166.20
159.14
151.75
144.35
136.94
129.37
121.41
112.94
104.08
95.15
86.57
78.70
71.65
65.22
59.01
52.57
45.66
38.37
31.11
24.42
18.72
14.10
10.29
6.86
3.34
-0.61
-5.14
-10.38
-16.25
-22.23
-27.10
-29.11
-26.63
-18.97
-7.06
6.78
19.74
29.72
36.22
40.20
43.27
46.54
50.02
52.69
53.39
51.49
47.30
41.78
35.96
30.41
25.15
20.03
15.08
10.83
8.09
7.47
8.90
11.44
13.69
14.39
13.02
9.96
6.24
2.95
0.70
-0.51
-1.11
-1.62
-2.38
-3.48
-4.83
-6.27
-7.64
-8.73
-9.36
-9.49
-9.14
-8.56
-8.07
-7.99
-8.50
-9.43
-10.33
-10.51
-9.28
-6.19
-1.32
4.71
10.87
16.05
19.39
20.50
19.58
17.21
14.15
11.05
8.32
6.14
4.51
3.40
2.83
2.86
3.56
4.90
6.71
8.67
10.49
11.90
12.70
12.80
12.14
10.68
8.47
5.71
2.53
-0.81
-4.12
-7.27
-10.20
-12.92
-15.32
-17.27
-18.66
-19.41
-19.60
-19.39
-19.01
-18.71
-18.65
-18.91
-19.38
-19.81
-19.72
-18.57
-15.87
-11.44
-5.60
0.93
7.09
11.92
14.76
15.49
14.44
12.17
9.27
6.15
3.01
-0.06
-2.91
-5.29
-6.93
-7.66
-7.44
-6.38
-4.78
-2.98
-1.32
-0.10
0.50
0.40
-0.34
-1.56
-3.03
-4.58
-6.18
-7.91
-9.91
-12.20
-14.68
-17.09
-19.12
-20.55
-21.38
-21.85
-22.32
-23.22
-24.95
-27.53
-30.92
-34.85
-38.68
-41.42
-41.85
-38.87
-31.85
-20.96
-7.22
7.74
22.14
34.54
44.11
50.61
54.28
55.50
54.74
52.45
49.05
45.04
40.87
36.99
33.68
31.07
29.12
27.74
26.77
26.05
25.43
24.71
23.69
22.18
20.09
17.46
14.40
11.02
7.37
3.43
-0.84
-5.34
-9.84
-14.05
-17.77
-20.94
-23.76
-26.53
-29.52
-32.94
-36.90
-41.46
-46.57
-52.01
-57.17
-61.05
-62.42
-60.12
-53.51
-42.73
-28.72
-13.02
2.67
16.87
28.58
37.33
43.10
46.19
47.04
46.17
44.16
41.54
38.79
36.25
34.15
32.54
31.39
30.65
30.26
30.16
30.29
30.54
30.71
30.52
29.65
27.88
25.18
21.70
17.74
13.67
9.70
5.90
2.19
-1.60
-5.55
-9.64
-13.79
-17.84
-21.69
-25.27
-28.60
-31.80
-35.11
-38.81
-43.12
-48.00
-52.97
-57.16
-59.45
-58.75
-54.34
-46.13
-34.68
-21.13
-6.90
6.62
18.34
27.61
34.18
38.10
39.60
38.99
36.74
33.46
29.87
26.63
24.18
22.68
21.99
21.86
22.05
22.38
22.76
23.08
23.18
22.93
22.22
21.02
19.34
17.19
14.58
11.54
8.20
4.74
1.34
-1.92
-5.12
-8.38
-11.82
-15.35
-18.74
-21.71
-24.12
-26.10
-28.02
-30.38
-33.60
-37.82
-42.80
-47.87
-52.02
-54.10
-53.10
-48.49
-40.36
-29.47
-17.00
-4.29
7.52
17.65
25.66
31.42
34.92
36.29
35.81
33.86
30.94
27.56
24.19
21.21
18.87
17.34
16.70
16.89
17.77
19.06
20.40
21.45
21.90
21.57
20.41
18.50
16.01
13.19
10.28
7.41
4.61
1.78
-1.24
-4.60
-8.29
-12.21
-16.15
-19.87
-23.20
-26.11
-28.68
-31.11
-33.68
-36.70
-40.34
-44.52
-48.79
-52.31
-54.04
-53.04
-48.76
-41.22
-31.03
-19.20
-6.90
4.78
15.00
23.19
29.07
32.59
33.89
33.25
31.04
27.72
23.84
19.94
16.57
14.11
12.75
12.43
12.96
14.05
15.36
16.56
17.31
17.32
16.49
14.90
12.81
10.56
8.34
6.19
3.94
1.36
-1.69
-5.26
-9.21
-13.32
-17.32
-20.99
-24.17
-26.89
-29.38
-32.02
-35.21
-39.14
-43.60
-47.97
-51.30
-52.53
-50.76
-45.56
-37.02
-25.87
-13.32
-0.70
10.74
20.13
27.05
31.40
33.32
33.09
31.09
27.86
24.03
20.26
17.09
14.81
13.45
12.87
12.92
13.39
14.17
15.09
15.93
16.46
16.50
15.93
14.75
12.97
10.64
7.75
4.37
0.57
-3.49
-7.61
-11.58
-15.27
-18.60
-21.62
-24.47
-27.37
-30.56
-34.28
-38.69
-43.76
-49.16
-54.19
-57.86
-59.12
-57.16
-51.73
-43.26
-32.79
-21.66
-11.08
-1.91
5.50
11.15
15.19
17.70
18.69
18.16
16.35
13.77
11.15
9.24
8.51
9.01
10.41
12.18
13.82
15.12
16.04
16.65
16.98
16.90
16.18
14.64
12.18
8.84
4.76
0.12
-4.81
-9.66
-14.03
-17.60
-20.30
-22.44
-24.56
-27.28
-30.98
-35.59
-40.54
-44.88
-47.50
-47.33
-43.66
-36.30
-25.72
-13.06
0.21
12.62
23.09
31.09
36.51
39.52
40.36
39.34
36.83
33.44
29.91
26.97
25.13
24.55
24.98
25.97
26.93
27.39
27.15
26.31
25.17
24.10
23.31
22.70
21.90
20.40
17.87
14.26
9.77
4.78
-0.33
-5.23
-9.68
-13.53
-16.75
-19.50
-22.14
-25.19
-29.10
-33.99
-39.51
-44.75
-48.45
-49.31
-46.43
-39.56
-29.28
-16.79
-3.61
8.82
19.45
27.78
33.72
37.43
39.18
39.23
37.87
35.50
32.60
29.73
27.34
25.72
24.95
24.89
25.28
25.85
26.34
26.59
26.51
26.08
25.32
24.25
22.80
20.89
18.40
15.29
11.65
7.71
3.79
0.16
-3.02
-5.75
-8.16
-10.43
-12.72
-15.21
-18.12
-21.64
-25.79
-30.29
-34.48
-37.39
-37.99
-35.53
-29.74
-21.01
-10.27
1.23
12.25
21.76
29.14
34.16
36.93
37.75
37.00
35.05
32.32
29.18
26.05
23.31
21.23
19.92
19.29
19.09
19.06
19.00
18.80
18.50
18.12
17.65
16.99
15.97
14.45
12.35
9.70
6.57
3.07
-0.68
-4.51
-8.23
-11.62
-14.53
-16.95
-19.04
-21.12
-23.54
-26.59
-30.37
-34.68
-39.06
-42.77
-44.92
-44.69
-41.55
-35.44
-26.89
-16.83
-6.39
3.38
11.70
18.14
22.57
25.04
25.74
24.90
22.82
19.94
16.76
13.80
11.54
10.23
9.84
10.11
10.65
11.10
11.28
11.16
10.83
10.33
9.56
8.33
6.43
3.76
0.39
-3.49
-7.65
-11.87
-16.00
-19.90
-23.45
-26.50
-28.96
-30.82
-32.14
-33.13
-34.02
-35.11
-36.57
-38.34
-40.03
-40.91
-40.14
-37.04
-31.36
-23.46
-14.20
-4.63
4.25
11.81
17.75
22.03
24.72
25.91
25.71
24.26
21.86
18.91
15.90
13.30
11.48
10.65
10.78
11.66
12.99
14.39
15.54
16.14
15.98
15.03
13.37
11.20
8.76
6.17
3.39
0.34
-3.03
-6.64
-10.26
-13.61
-16.50
-18.96
-21.19
-23.51
-26.23
-29.59
-33.66
-38.37
-43.31
-47.81
-50.90
-51.56
-49.01
-43.02
-34.01
-23.02
-11.43
-0.55
8.70
15.87
20.98
24.29
26.05
26.49
25.79
24.22
22.19
20.22
18.79
18.21
18.50
19.49
20.89
22.43
23.89
25.07
25.79
25.82
25.01
23.35
20.93
17.99
14.75
11.36
7.89
4.38
0.89
-2.50
-5.69
-8.63
-11.38
-14.02
-16.72
-19.61
-22.81
-26.42
-30.46
-34.77
-38.95
-42.30
-43.93
-42.96
-38.87
-31.72
-22.18
-11.36
-0.49
9.41
17.71
24.20
28.87
31.85
33.22
33.07
31.58
29.05
25.93
22.74
19.98
17.97
16.88
16.70
17.21
18.10
19.02
19.64
19.74
19.24
18.16
16.54
14.44
11.88
8.95
5.81
2.60
-0.54
-3.64
-6.77
-10.03
-13.43
-16.83
-20.01
-22.90
-25.63
-28.55
-32.01
-36.18
-40.81
-45.18
-48.30
-49.18
-47.12
-41.88
-33.80
-23.64
-12.40
-1.08
9.39
18.33
25.23
29.78
31.87
31.63
29.45
25.92
21.73
17.58
14.02
11.41
9.91
9.45
9.79
10.53
11.24
11.57
11.34
10.53
9.22
7.50
5.37
2.78
-0.34
-4.05
-8.24
-12.76
-17.41
-22.00
-26.44
-30.73
-34.91
-39.05
-43.22
-47.43
-51.64
-55.68
-59.16
-61.46
-61.77
-59.21
-53.22
-43.73
-31.32
-17.03
-2.18
12.02
24.64
35.11
43.12
48.54
51.38
51.80
50.08
46.72
42.31
37.57
33.13
29.59
27.30
26.30
26.36
26.98
27.60
27.80
27.33
26.19
24.52
22.41
19.93
17.04
13.72
9.97
5.87
1.54
-2.90
-7.29
-11.57
-15.65
-19.59
-23.54
-27.75
-32.51
-37.94
-43.89
-49.73
-54.50
-57.03
-56.28
-51.61
-43.07
-31.35
-17.69
-3.59
9.56
20.72
29.31
35.20
38.62
39.94
39.55
37.87
35.27
32.15
28.94
26.08
23.97
22.86
22.77
23.50
24.66
25.77
26.46
26.50
25.83
24.52
22.63
20.22
17.28
13.81
9.87
5.59
1.17
-3.18
-7.29
-11.09
-14.60
-17.96
-21.35
-25.01
-29.07
-33.65
-38.71
-44.05
-49.24
-53.55
-56.00
-55.58
-51.53
-43.64
-32.41
-18.99
-4.86
8.58
20.26
29.61
36.43
40.77
42.82
42.85
41.25
38.51
35.21
31.89
29.04
26.95
25.75
25.40
25.72
26.47
27.36
28.07
28.30
27.82
26.51
24.40
21.70
18.65
15.40
11.97
8.30
4.25
-0.13
-4.68
-9.15
-13.30
-17.08
-20.57
-23.97
-27.49
-31.29
-35.49
-40.12
-45.04
-49.81
-53.71
-55.78
-55.05
-50.89
-43.19
-32.47
-19.75
-6.29
6.68
18.19
27.61
34.61
39.09
41.08
40.80
38.62
35.12
31.07
27.26
24.36
22.71
22.27
22.70
23.56
24.38
24.87
24.87
24.33
23.29
21.87
20.19
18.32
16.28
14.01
11.37
8.26
4.64
0.57
-3.81
-8.32
-12.72
-16.79
-20.34
-23.29
-25.77
-28.07
-30.72
-34.19
-38.75
-44.22
-49.91
-54.67
-57.19
-56.31
-51.36
-42.43
-30.34
-16.46
-2.37
10.55
21.33
29.45
34.83
37.61
38.06
36.58
33.62
29.75
25.57
21.69
18.58
16.49
15.42
15.16
15.37
15.70
15.85
15.68
15.14
14.22
12.91
11.17
9.00
6.40
3.44
0.18
-3.34
-7.08
-10.96
-14.86
-18.57
-21.93
-24.90
-27.56
-30.14
-32.95
-36.26
-40.24
-44.86
-49.77
-54.24
-57.20
-57.45
-54.04
-46.62
-35.68
-22.42
-8.42
4.82
16.25
25.37
32.15
36.73
39.35
40.21
39.57
37.81
35.40
32.86
30.62
28.96
27.99
27.62
27.67
27.91
28.16
28.31
28.27
27.96
27.27
26.03
24.09
21.37
17.93
13.99
9.85
5.84
2.23
-0.92
-3.66
-6.17
-8.71
-11.54
-14.79
-18.47
-22.47
-26.69
-31.08
-35.65
-40.28
-44.59
-47.77
-48.82
-46.80
-41.27
-32.46
-21.28
-9.02
3.08
14.03
23.23
30.37
35.33
38.05
38.60
37.20
34.27
30.37
26.16
22.28
19.20
17.21
16.33
16.44
17.25
18.47
19.75
20.81
21.35
21.22
20.32
18.70
16.48
13.85
10.97
7.97
4.96
2.01
-0.82
-3.54
-6.19
-8.85
-11.56
-14.33
-17.12
-19.96
-22.99
-26.45
-30.58
-35.46
-40.79
-45.81
-49.43
-50.52
-48.21
-42.25
-33.06
-21.65
-9.31
2.73
13.51
22.39
29.04
33.34
35.32
35.14
33.18
29.94
26.01
22.03
18.51
15.85
14.25
13.71
13.99
14.71
15.43
15.79
15.62
14.91
13.79
12.37
10.72
8.88
6.83
4.54
1.91
-1.10
-4.58
-8.45
-12.55
-16.58
-20.28
-23.56
-26.54
-29.51
-32.78
-36.51
-40.52
-44.31
-47.11
-48.02
-46.26
-41.45
-33.71
-23.72
-12.52
-1.20
9.31
18.35
25.54
30.64
33.53
34.19
32.81
29.83
25.90
21.77
18.13
15.49
14.06
13.77
14.27
15.10
15.78
16.01
15.70
14.95
13.90
12.63
11.09
9.19
6.84
4.05
0.85
-2.68
-6.49
-10.46
-14.45
-18.27
-21.78
-24.99
-28.05
-31.21
-34.69
-38.62
-42.94
-47.28
-50.97
-53.06
-52.50
-48.50
-40.86
-30.15
-17.61
-4.70
7.24
17.40
25.45
31.38
35.25
37.12
37.10
35.45
32.68
29.46
26.41
24.04
22.55
21.93
21.95
22.33
22.77
23.09
23.20
23.03
22.55
21.68
20.33
18.50
16.28
13.79
11.10
8.17
4.85
1.01
-3.31
-7.89
-12.35
-16.40
-19.94
-23.08
-26.09
-29.27
-32.86
-36.93
-41.43
-46.03
-50.16
-52.93
-53.36
-50.63
-44.39
-34.94
-23.20
-10.50
1.78
12.54
21.08
27.15
30.85
32.46
32.32
30.81
28.33
25.35
22.39
19.92
18.26
17.47
17.39
17.72
18.13
18.39
18.38
18.06
17.43
16.52
15.38
14.06
12.52
10.68
8.31
5.31
1.67
-2.37
-6.45
-10.19
-13.39
-16.01
-18.20
-20.22
-22.40
-25.12
-28.67
-33.15
-38.27
-43.23
-46.85
-47.89
-45.44
-39.25
-29.83
-18.30
-6.09
5.48
15.38
23.06
28.39
31.57
33.00
33.11
32.30
30.96
29.38
27.80
26.40
25.25
24.30
23.44
22.58
21.69
20.86
20.22
19.80
19.53
19.22
18.57
17.33
15.34
12.61
9.28
5.58
1.74
-2.09
-5.81
-9.43
-12.90
-16.20
-19.27
-22.13
-24.80
-27.41
-30.12
-33.09
-36.48
-40.38
-44.73
-49.23
-53.20
-55.68
-55.64
-52.32
-45.59
-36.02
-24.69
-12.87
-1.66
8.26
16.53
23.01
27.66
30.48
31.54
31.09
29.52
27.30
24.86
22.54
20.57
19.10
18.21
17.91
18.22
19.04
20.15
21.19
21.76
21.53
20.31
18.19
15.43
12.34
9.16
6.02
2.95
-0.10
-3.12
-6.09
-8.98
-11.77
-14.48
-17.15
-19.88
-22.78
-26.03
-29.84
-34.28
-39.21
-44.14
-48.26
-50.61
-50.30
-46.79
-40.07
-30.68
-19.57
-7.95
2.99
12.36
19.67
24.76
27.78
28.95
28.51
26.73
23.96
20.69
17.51
14.92
13.26
12.57
12.65
13.15
13.79
14.35
14.72
14.88
14.77
14.26
13.22
11.52
9.19
6.42
3.54
0.90
-1.34
-3.28
-5.24
-7.59
-10.51
-13.91
-17.43
-20.71
-23.51
-25.88
-28.09
-30.60
-33.84
-38.10
-43.37
-49.18
-54.55
-58.15
-58.63
-55.04
-47.23
-35.91
-22.47
-8.53
4.48
15.61
24.45
30.96
35.33
37.78
38.60
38.10
36.68
34.81
32.91
31.35
30.26
29.63
29.31
29.18
29.17
29.34
29.77
30.43
31.11
31.41
30.88
29.22
26.40
22.75
18.76
14.92
11.43
8.26
5.10
1.68
-2.15
-6.32
-10.57
-14.62
-18.23
-21.28
-23.84
-26.09
-28.36
-31.03
-34.44
-38.72
-43.63
-48.47
-52.20
-53.72
-52.11
-47.02
-38.73
-28.06
-16.20
-4.35
6.46
15.57
22.66
27.71
30.93
32.59
32.98
32.40
31.14
29.46
27.68
26.03
24.65
23.59
22.86
22.48
22.52
23.06
24.08
25.36
26.49
26.96
26.34
24.48
21.48
17.71
13.62
9.64
6.08
3.05
0.42
-2.07
-4.73
-7.80
-11.27
-14.93
-18.43
-21.47
-23.97
-26.16
-28.49
-31.48
-35.52
-40.57
-46.15
-51.27
-54.69
-55.18
-52.00
-45.04
-34.93
-22.82
-10.07
2.06
12.68
21.28
27.68
31.90
34.08
34.40
33.16
30.73
27.60
24.30
21.31
19.00
17.51
16.83
16.81
17.30
18.12
19.06
19.93
20.48
20.53
19.98
18.90
17.40
15.58
13.50
11.12
8.42
5.45
2.30
-0.93
-4.17
-7.40
-10.59
-13.68
-16.63
-19.45
-22.36
-25.70
-29.84
-34.98
-40.91
-46.98
-52.14
-55.24
-55.23
-51.55
-44.19
-33.77
-21.42
-8.51
3.63
14.00
22.06
27.74
31.24
32.91
33.08
32.09
30.28
28.00
25.66
23.61
22.12
21.32
21.23
21.77
22.85
24.33
26.02
27.63
28.83
29.30
28.84
27.41
25.14
22.24
18.92
15.30
11.47
7.53
3.62
-0.07
-3.39
-6.39
-9.27
-12.36
-15.98
-20.27
-25.20
-30.55
-35.99
-41.05
-45.12
-47.47
-47.43
-44.59
-38.97
-31.08
-21.82
-12.17
-2.97
5.19
12.01
17.30
20.96
22.90
23.13
21.76
19.07
15.51
11.70
8.29
5.86
4.74
4.92
6.07
7.79
9.73
11.63
13.32
14.57
15.07
14.43
12.44
9.15
4.94
0.34
-4.09
-7.92
-10.99
-13.36
-15.30
-17.25
-19.70
-23.05
-27.45
-32.66
-38.04
-42.61
-45.29
-45.09
-41.46
-34.39
-24.54
-13.05
-1.31
9.41
18.25
24.82
29.13
31.36
31.75
30.58
28.22
25.14
21.87
18.92
16.61
15.04
14.17
13.92
14.20
14.93
16.03
17.40
18.88
20.28
21.39
21.92
21.59
20.17
17.60
14.04
9.89
5.63
1.66
-1.87
-5.05
-8.20
-11.69
-15.83
-20.75
-26.36
-32.30
-37.97
-42.54
-45.08
-44.83
-41.34
-34.73
-25.63
-15.08
-4.29
5.63
13.83
19.79
23.31
24.50
23.67
21.31
17.99
14.32
10.81
7.80
5.47
3.79
2.65
1.92
1.50
1.33
1.36
1.55
1.79
1.94
1.83
1.30
0.22
-1.45
-3.68
-6.36
-9.34
-12.45
-15.64
-18.94
-22.53
-26.61
-31.26
-36.31
-41.19
-45.02
-46.82
-45.77
-41.56
-34.48
-25.36
-15.25
-5.21
3.97
11.76
17.83
21.94
23.91
23.76
21.82
18.68
15.16
11.99
9.63
8.20
7.56
7.50
7.84
8.58
9.71
11.17
12.71
13.94
14.42
13.88
12.26
9.76
6.70
3.39
0.00
-3.46
-7.13
-11.16
-15.69
-20.76
-26.31
-32.10
-37.68
-42.33
-45.12
-45.13
-41.73
-34.87
-25.18
-13.86
-2.36
8.07
16.63
23.09
27.63
30.60
32.30
32.92
32.58
31.44
29.80
28.00
26.34
25.00
23.97
23.14
22.36
21.57
20.80
20.10
19.52
19.02
18.46
17.60
16.26
14.32
11.81
8.89
5.78
2.64
-0.54
-3.88
-7.62
-11.92
-16.85
-22.28
-27.90
-33.19
-37.50
-40.08
-40.21
-37.45
-31.73
-23.51
-13.65
-3.24
6.70
15.35
22.21
27.02
29.75
30.53
29.59
27.27
23.98
20.19
16.44
13.19
10.80
9.36
8.79
8.81
9.16
9.57
9.86
9.83
9.24
7.87
5.59
2.51
-1.04
-4.59
-7.74
-10.30
-12.38
-14.34
-16.65
-19.86
-24.37
-30.23
-36.95
-43.47
-48.31
-50.05
-47.78
-41.45
-31.83
-20.26
-8.12
3.40
13.47
21.62
27.61
31.41
33.18
33.21
31.89
29.70
27.12
24.53
22.20
20.18
18.37
16.61
14.85
13.20
11.96
11.35
11.43
11.89
12.17
11.67
9.99
7.00
2.93
-1.83
-6.78
-11.46
-15.54
-18.91
-21.76
-24.55
-27.87
-32.17
-37.47
-43.32
-48.78
-52.64
-53.75
-51.37
-45.33
-36.09
-24.65
-12.21
0.03
11.14
20.56
27.92
33.11
36.12
37.11
36.42
34.56
32.09
29.54
27.28
25.49
24.21
23.39
22.84
22.31
21.57
20.50
19.12
17.61
16.17
14.87
13.60
12.07
9.98
7.17
3.62
-0.51
-5.00
-9.58
-14.00
-18.06
-21.69
-24.98
-28.22
-31.83
-36.15
-41.29
-46.98
-52.51
-56.86
-58.88
-57.62
-52.55
-43.78
-32.04
-18.54
-4.65
8.38
19.67
28.63
35.05
38.95
40.53
40.18
38.47
36.04
33.48
31.21
29.48
28.35
27.76
27.58
27.67
27.89
28.10
28.17
28.04
27.63
26.83
25.55
23.69
21.22
18.24
14.94
11.55
8.20
4.91
1.58
-1.95
-5.84
-10.12
-14.68
-19.30
-23.68
-27.59
-30.99
-34.04
-37.08
-40.58
-45.01
-50.58
-57.18
-64.20
-70.53
-74.77
-75.54
-71.88
-63.60
-51.33
-36.40
-20.43
-4.95
8.93
20.60
29.85
36.69
41.31
43.91
44.80
44.34
42.98
41.14
39.21
37.50
36.15
35.22
34.67
34.42
34.40
34.51
34.69
34.78
34.60
33.92
32.54
30.32
27.26
23.51
19.35
15.11
11.08
7.38
3.95
0.53
-3.20
-7.40
-12.00
-16.71
-21.09
-24.85
-27.96
-30.71
-33.57
-37.07
-41.56
-47.15
-53.61
-60.24
-65.93
-69.29
-68.99
-64.17
-54.84
-41.90
-26.88
-11.48
2.95
15.56
26.00
34.18
40.07
43.66
45.03
44.47
42.52
39.85
37.12
34.82
33.18
32.20
31.70
31.44
31.26
31.05
30.85
30.62
30.26
29.57
28.30
26.25
23.39
19.84
15.76
11.39
6.91
2.47
-1.80
-5.86
-9.70
-13.40
-17.05
-20.70
-24.33
-27.86
-31.26
-34.55
-37.87
-41.48
-45.57
-50.21
-55.21
-60.01
-63.69
-65.12
-63.19
-57.34
-47.68
-35.09
-20.90
-6.58
6.73
18.33
27.86
35.19
40.26
43.09
43.83
42.74
40.26
36.95
33.47
30.46
28.49
27.87
28.63
30.48
32.93
35.45
37.58
38.84
38.87
37.39
34.37
30.09
25.16
20.27
15.87
12.04
8.47
4.68
0.35
-4.60
-10.01
-15.63
-21.18
-26.44
-31.23
-35.46
-39.24
-42.97
-47.16
-52.28
-58.29
-64.56
-69.81
-72.44
-71.02
-64.73
-53.60
-38.62
-21.42
-3.93
12.15
25.64
36.04
43.34
47.80
49.79
49.69
47.94
45.14
42.01
39.18
37.06
35.71
34.91
34.36
33.78
33.11
32.42
31.85
31.46
31.20
30.84
30.05
28.57
26.30
23.35
19.99
16.43
12.77
8.88
4.59
-0.22
-5.45
-10.81
-15.91
-20.47
-24.48
-28.14
-31.78
-35.81
-40.49
-45.89
-51.70
-57.26
-61.56
-63.35
-61.58
-55.61
-45.53
-32.18
-17.02
-1.80
11.90
22.98
31.02
36.20
39.11
40.34
40.30
39.19
37.10
34.16
30.67
27.03
23.66
20.85
18.76
17.42
16.82
16.89
17.54
18.53
19.51
20.10
19.97
18.85
16.70
13.64
9.97
6.04
2.25
-1.16
-4.19
-7.04
-9.98
-13.20
-16.70
-20.38
-24.08
-27.76
-31.52
-35.61
-40.20
-45.23
-50.27
-54.43
-56.57
-55.56
-50.66
-41.87
-29.93
-16.20
-2.19
10.80
21.90
30.74
37.21
41.31
43.10
42.72
40.53
37.00
32.71
28.24
24.03
20.44
17.72
16.02
15.34
15.51
16.23
17.06
17.59
17.47
16.49
14.66
12.16
9.27
6.30
3.37
0.44
-2.67
-6.13
-9.94
-13.92
-17.83
-21.50
-24.96
-28.40
-32.04
-36.07
-40.54
-45.36
-50.30
-54.90
-58.39
-59.80
-58.21
-53.06
-44.38
-32.90
-19.78
-6.31
6.39
17.50
26.53
33.22
37.44
39.24
38.79
36.48
32.85
28.61
24.43
20.92
18.45
17.08
16.62
16.75
17.11
17.49
17.73
17.76
17.46
16.68
15.30
13.21
10.41
6.98
3.04
-1.19
-5.49
-9.61
-13.40
-16.78
-19.85
-22.78
-25.84
-29.31
-33.40
-38.16
-43.40
-48.53
-52.57
-54.30
-52.63
-46.95
-37.44
-25.07
-11.37
2.09
14.03
23.73
30.98
35.85
38.50
39.09
37.82
35.02
31.25
27.19
23.47
20.49
18.34
16.88
15.89
15.23
14.85
14.78
14.95
15.19
15.22
14.81
13.77
12.06
9.72
6.83
3.46
-0.28
-4.24
-8.21
-12.03
-15.59
-18.93
-22.24
-25.79
-29.86
-34.64
-40.07
-45.74
-50.88
-54.43
-55.32
-52.75
-46.50
-36.99
-25.21
-12.37
0.34
11.96
21.87
29.67
35.13
38.18
38.94
37.75
35.21
32.05
28.97
26.52
24.98
24.34
24.41
24.90
25.60
26.35
27.12
27.90
28.66
29.33
29.72
29.64
28.91
27.41
25.17
22.35
19.19
16.00
12.99
10.24
7.63
4.89
1.63
-2.45
-7.46
-13.12
-18.66
-22.98
-24.89
-23.50
-18.48
-10.30
-0.08
10.73
20.65
28.58
33.86
36.31
35.99
33.18
28.25
21.74
14.29
6.69
-0.27
-5.91
-9.83
-11.96
-12.51
-11.93
-10.71
-9.21
-7.60
-5.87
-3.96
-1.86
0.26
2.07
3.19
3.31
2.35
0.42
-2.19
-5.18
-8.38
-11.73
-15.36
-19.46
-24.25
-29.83
-36.10
-42.74
-49.10
-54.39
-57.76
-58.60
-56.62
-51.98
-45.25
-37.22
-28.80
-20.80
-13.86
-8.41
-4.64
-2.58
-2.09
-2.87
-4.48
-6.41
-8.13
-9.20
-9.40
-8.71
-7.35
-5.62
-3.83
-2.14
-0.60
0.82
2.15
3.34
4.22
4.52
4.00
2.49
0.05
-3.05
-6.37
-9.45
-12.01
-14.06
-15.86
-17.89
-20.62
-24.36
-29.10
-34.44
-39.62
-43.60
-45.27
-43.78
-38.75
-30.47
-19.83
-8.11
3.44
13.84
22.55
29.38
34.34
37.50
38.88
38.56
36.78
33.91
30.48
27.06
24.07
21.75
20.07
18.88
17.99
17.27
16.72
16.43
16.41
16.54
16.55
16.05
14.74
12.50
9.47
5.99
2.44
-0.92
-4.00
-6.94
-10.01
-13.53
-17.74
-22.73
-28.34
-34.09
-39.21
-42.71
-43.62
-41.30
-35.64
-27.16
-16.82
-5.80
4.85
14.34
22.24
28.34
32.54
34.78
35.08
33.60
30.71
26.95
23.01
19.51
16.95
15.52
15.15
15.50
16.10
16.54
16.59
16.24
15.63
14.90
14.01
12.79
10.94
8.31
4.91
0.99
-3.13
-7.15
-10.91
-14.36
-17.56
-20.64
-23.78
-27.24
-31.27
-36.00
-41.20
-46.20
-49.97
-51.36
-49.45
-43.93
-35.14
-24.03
-11.88
0.01
10.63
19.35
25.93
30.47
33.20
34.42
34.40
33.39
31.65
29.49
27.24
25.25
23.77
22.87
22.50
22.44
22.46
22.38
22.12
21.67
21.04
20.21
19.10
17.62
15.66
13.22
10.38
7.25
3.96
0.56
-2.93
-6.49
-10.02
-13.38
-16.40
-19.07
-21.54
-24.13
-27.26
-31.23
-36.09
-41.46
-46.56
-50.28
-51.45
-49.16
-43.09
-33.65
-21.96
-9.51
2.24
12.23
19.96
25.44
28.96
30.92
31.62
31.31
30.25
28.73
27.06
25.53
24.33
23.51
23.05
22.85
22.86
23.05
23.42
23.96
24.55
25.04
25.17
24.66
23.32
21.07
18.09
14.71
11.36
8.38
5.93
3.91
2.05
-0.01
-2.53
-5.59
-9.06
-12.69
-16.16
-19.21
-21.70
-23.64
-25.21
-26.78
-28.83
-31.81
-35.96
-41.08
-46.45
-50.89
-53.07
-51.91
-46.95
-38.57
-27.79
-16.02
-4.56
5.62
14.03
20.58
25.34
28.44
30.01
30.19
29.22
27.42
25.21
23.01
21.18
19.94
19.38
19.41
19.86
20.49
21.09
21.52
21.71
21.70
21.47
21.01
20.21
18.98
17.25
15.10
12.75
10.39
8.13
5.90
3.53
0.85
-2.20
-5.52
-8.90
-12.13
-15.05
-17.61
-19.84
-21.92
-24.08
-26.61
-29.74
-33.48
-37.55
-41.40
-44.25
-45.32
-43.98
-39.99
-33.50
-25.02
-15.39
-5.50
3.83
11.97
18.59
23.58
26.93
28.69
28.91
27.71
25.40
22.38
19.20
16.34
14.20
12.94
12.58
13.04
14.09
15.44
16.69
17.47
17.40
16.34
14.34
11.70
8.77
5.88
3.20
0.73
-1.67
-4.19
-6.97
-10.05
-13.29
-16.49
-19.47
-22.12
-24.51
-26.84
-29.36
-32.32
-35.88
-40.04
-44.54
-48.84
-52.07
-53.24
-51.48
-46.36
-38.11
-27.62
-16.13
-4.88
5.20
13.64
20.32
25.29
28.62
30.35
30.55
29.48
27.56
25.38
23.49
22.26
21.75
21.82
22.16
22.55
22.93
23.33
23.77
24.19
24.38
24.03
22.97
21.16
18.77
16.09
13.38
10.79
8.34
5.86
3.17
0.11
-3.34
-7.05
-10.75
-14.16
-17.10
-19.54
-21.61
-23.58
-25.79
-28.58
-32.22
-36.77
-41.96
-47.13
-51.25
-53.17
-51.96
-47.21
-39.22
-28.86
-17.33
-5.82
4.71
13.63
20.68
25.83
29.20
30.98
31.42
30.78
29.37
27.53
25.62
23.94
22.68
21.88
21.48
21.41
21.66
22.27
23.24
24.44
25.61
26.30
26.14
24.88
22.54
19.39
15.84
12.29
9.07
6.35
4.07
2.07
0.09
-2.13
-4.74
-7.74
-10.99
-14.26
-17.29
-19.98
-22.32
-24.45
-26.66
-29.28
-32.59
-36.70
-41.42
-46.14
-49.92
-51.65
-50.38
-45.62
-37.53
-26.91
-15.00
-3.16
7.46
16.08
22.39
26.41
28.42
28.78
27.95
26.37
24.53
22.85
21.54
20.65
20.02
19.46
18.88
18.36
18.08
18.19
18.73
19.49
20.15
20.32
19.78
18.44
16.40
13.89
11.19
8.51
5.97
3.53
1.06
-1.60
-4.55
-7.74
-11.02
-14.20
-17.09
-19.62
-21.85
-23.94
-26.18
-28.89
-32.35
-36.57
-41.21
-45.52
-48.55
-49.36
-47.36
-42.42
-34.87
-25.37
-14.74
-3.86
6.42
15.38
22.46
27.33
29.99
30.70
29.89
28.04
25.65
23.15
20.91
19.20
18.15
17.69
17.68
17.96
18.42
19.01
19.70
20.41
20.95
21.03
20.36
18.82
16.44
13.51
10.41
7.51
4.96
2.69
0.43
-2.17
-5.33
-9.04
-13.06
-17.05
-20.69
-23.81
-26.41
-28.67
-30.86
-33.37
-36.60
-40.82
-45.94
-51.36
-55.94
-58.27
-57.14
-51.91
-42.80
-30.80
-17.35
-3.97
8.08
17.96
25.30
30.09
32.63
33.36
32.80
31.43
29.73
28.06
26.70
25.77
25.24
24.98
24.78
24.54
24.27
24.06
24.02
24.18
24.50
24.83
24.96
24.65
23.63
21.73
18.96
15.53
11.90
8.52
5.69
3.37
1.27
-0.99
-3.72
-6.95
-10.51
-14.10
-17.47
-20.54
-23.36
-26.11
-29.03
-32.32
-36.09
-40.36
-44.98
-49.54
-53.36
-55.56
-55.21
-51.60
-44.51
-34.34
-22.13
-9.22
3.04
13.64
22.07
28.28
32.51
35.07
36.23
36.11
34.87
32.75
30.14
27.56
25.51
24.29
23.98
24.38
25.19
26.10
26.92
27.55
27.96
28.14
28.02
27.51
26.51
24.98
22.89
20.33
17.40
14.25
11.06
7.90
4.80
1.69
-1.46
-4.68
-7.89
-11.03
-14.00
-16.79
-19.41
-21.92
-24.35
-26.74
-29.19
-31.90
-35.15
-39.24
-44.18
-49.62
-54.72
-58.31
-59.23
-56.69
-50.53
-41.20
-29.73
-17.31
-5.09
6.09
15.73
23.61
29.66
33.80
35.98
36.17
34.57
31.66
28.14
24.78
22.22
20.75
20.35
20.73
21.55
22.53
23.49
24.32
24.91
25.14
24.89
24.02
22.48
20.24
17.43
14.31
11.21
8.43
6.10
4.08
2.01
-0.46
-3.56
-7.21
-11.04
-14.63
-17.63
-19.93
-21.72
-23.36
-25.30
-27.99
-31.67
-36.34
-41.63
-46.75
-50.58
-51.92
-49.79
-43.76
-34.15
-21.99
-8.76
4.02
15.12
23.85
29.97
33.62
35.10
34.76
33.01
30.30
27.15
24.05
21.40
19.37
17.95
17.05
16.53
16.36
16.52
17.06
17.92
18.96
19.88
20.34
20.01
18.69
16.46
13.56
10.31
7.01
3.78
0.57
-2.72
-6.19
-9.85
-13.59
-17.31
-20.88
-24.26
-27.47
-30.60
-33.80
-37.32
-41.40
-46.15
-51.35
-56.31
-59.98
-61.13
-58.80
-52.62
-42.95
-30.83
-17.58
-4.55
7.26
17.22
25.07
30.72
34.23
35.70
35.36
33.58
30.90
27.90
25.14
23.04
21.77
21.32
21.50
22.11
22.93
23.86
24.79
25.63
26.21
26.32
25.77
24.38
22.19
19.36
16.20
13.01
10.03
7.30
4.65
1.77
-1.61
-5.56
-9.97
-14.47
-18.61
-22.03
-24.60
-26.48
-28.11
-30.10
-33.05
-37.30
-42.77
-48.81
-54.31
-57.92
-58.45
-55.12
-47.88
-37.35
-24.70
-11.34
1.40
12.52
21.47
28.10
32.53
35.01
35.82
35.28
33.75
31.66
29.45
27.53
26.13
25.31
24.99
24.97
25.09
25.25
25.43
25.71
26.20
26.90
27.67
28.19
28.03
26.80
24.39
20.96
16.92
12.77
8.86
5.31
2.03
-1.15
-4.37
-7.61
-10.78
-13.74
-16.45
-18.95
-21.36
-23.81
-26.41
-29.26
-32.46
-36.15
-40.42
-45.19
-50.03
-54.15
-56.45
-55.82
-51.53
-43.45
-32.28
-19.25
-5.86
6.59
17.22
25.59
31.65
35.52
37.41
37.58
36.41
34.32
31.81
29.34
27.23
25.69
24.80
24.56
24.91
25.72
26.79
27.88
28.76
29.21
29.16
28.57
27.49
25.90
23.81
21.23
18.23
14.99
11.74
8.67
5.88
3.32
0.87
-1.63
-4.28
-7.12
-10.09
-13.11
-16.07
-18.87
-21.39
-23.59
-25.53
-27.41
-29.54
-32.21
-35.61
-39.72
-44.20
-48.44
-51.53
-52.49
-50.47
-45.08
-36.48
-25.49
-13.28
-1.10
10.07
19.59
27.15
32.60
35.88
36.94
35.97
33.38
29.87
26.24
23.20
21.28
20.68
21.27
22.68
24.36
25.81
26.67
26.84
26.45
25.75
24.92
23.98
22.85
21.41
19.57
17.34
14.81
12.07
9.20
6.29
3.41
0.60
-2.14
-4.86
-7.59
-10.35
-13.06
-15.67
-18.15
-20.55
-23.00
-25.60
-28.44
-31.55
-34.96
-38.69
-42.61
-46.30
-49.05
-49.92
-48.03
-42.95
-34.81
-24.40
-12.92
-1.63
8.42
16.57
22.52
26.29
28.06
28.10
26.77
24.55
21.96
19.48
17.47
16.09
15.30
14.95
14.93
15.17
15.68
16.44
17.29
17.95
18.08
17.40
15.88
13.67
11.12
8.58
6.22
4.02
1.80
-0.66
-3.44
-6.47
-9.50
-12.31
-14.80
-17.03
-19.17
-21.45
-24.06
-27.11
-30.59
-34.36
-38.03
-40.96
-42.35
-41.45
-37.82
-31.46
-22.94
-13.17
-3.18
6.09
13.98
20.06
24.17
26.31
26.56
25.13
22.36
18.72
14.80
11.26
8.69
7.46
7.56
8.63
10.06
11.21
11.71
11.49
10.75
9.76
8.64
7.35
5.70
3.54
0.82
-2.37
-5.88
-9.54
-13.23
-16.84
-20.32
-23.65
-26.87
-30.14
-33.62
-37.50
-41.85
-46.55
-51.19
-54.99
-56.97
-56.12
-51.76
-43.87
-33.18
-20.98
-8.73
2.39
11.71
19.02
24.42
28.02
29.88
30.12
29.03
27.09
24.90
23.03
21.84
21.40
21.57
22.07
22.58
22.89
22.92
22.68
22.23
21.59
20.73
19.49
17.77
15.53
12.80
9.67
6.24
2.61
-1.15
-4.94
-8.60
-11.98
-15.03
-17.87
-20.73
-23.96
-27.85
-32.52
-37.79
-43.13
-47.66
-50.31
-50.10
-46.42
-39.31
-29.46
-18.06
-6.40
4.44
13.79
21.38
27.21
31.36
33.93
35.03
34.89
33.86
32.41
30.98
29.88
29.27
29.07
29.15
29.37
29.61
29.86
30.14
30.42
30.64
30.65
30.27
29.27
27.50
24.94
21.70
18.09
14.47
11.20
8.47
6.23
4.19
1.97
-0.73
-4.00
-7.66
-11.37
-14.83
-17.84
-20.46
-22.90
-25.45
-28.39
-31.93
-36.15
-40.88
-45.63
-49.53
-51.46
-50.39
-45.69
-37.50
-26.66
-14.51
-2.43
8.44
17.44
24.30
29.01
31.64
32.41
31.65
29.86
27.65
25.63
24.23
23.65
23.83
24.49
25.28
25.85
26.05
25.88
25.56
25.30
25.25
25.31
25.24
24.71
23.52
21.68
19.37
16.84
14.30
11.81
9.36
6.88
4.32
1.70
-0.95
-3.57
-6.10
-8.47
-10.66
-12.67
-14.57
-16.46
-18.48
-20.71
-23.24
-26.13
-29.46
-33.26
-37.41
-41.51
-44.84
-46.46
-45.51
-41.45
-34.37
-24.96
-14.30
-3.59
6.17
14.27
20.35
24.28
26.14
26.16
24.75
22.40
19.73
17.30
15.58
14.80
14.97
15.83
16.97
17.96
18.53
18.57
18.15
17.43
16.54
15.56
14.41
12.98
11.14
8.85
6.15
3.24
0.36
-2.29
-4.64
-6.82
-9.08
-11.62
-14.48
-17.44
-20.18
-22.40
-24.05
-25.36
-26.75
-28.71
-31.56
-35.39
-39.95
-44.70
-48.84
-51.44
-51.65
-48.92
-43.18
-34.92
-25.05
-14.68
-4.79
3.97
11.31
17.22
21.78
25.04
27.07
27.98
27.98
27.37
26.41
25.27
24.08
22.92
21.97
21.48
21.61
22.38
23.60
24.87
25.81
26.12
25.68
24.48
22.61
20.17
17.35
14.36
11.43
8.78
6.52
4.63
2.98
1.35
-0.50
-2.74
-5.43
-8.45
-11.56
-14.48
-16.98
-19.00
-20.59
-21.95
-23.36
-25.07
-27.37
-30.54
-34.75
-39.93
-45.59
-50.81
-54.39
-55.15
-52.37
-46.01
-36.78
-25.92
-14.85
-4.72
3.80
10.58
15.89
20.15
23.60
26.28
28.01
28.63
28.17
26.89
25.24
23.72
22.65
22.17
22.22
22.66
23.35
24.22
25.19
26.14
26.87
27.15
26.76
25.60
23.71
21.27
18.57
15.89
13.46
11.34
9.44
7.54
5.46
3.10
0.52
-2.07
-4.48
-6.58
-8.38
-10.00
-11.59
-13.29
-15.19
-17.33
-19.68
-22.19
-24.75
-27.30
-29.85
-32.55
-35.67
-39.48
-44.00
-48.89
-53.34
-56.31
-56.75
-54.01
-47.96
-39.10
-28.35
-16.82
-5.59
4.47
12.79
19.11
23.46
26.03
27.17
27.23
26.54
25.41
24.09
22.85
21.90
21.46
21.61
22.38
23.65
25.25
26.93
28.39
29.33
29.51
28.86
27.47
25.64
23.74
22.07
20.77
19.76
18.80
17.58
15.81
13.30
10.00
6.10
1.98
-1.87
-5.05
-7.38
-9.04
-10.47
-12.15
-14.42
-17.31
-20.68
-24.27
-27.87
-31.40
-34.87
-38.35
-41.94
-45.70
-49.60
-53.32
-56.27
-57.66
-56.75
-53.09
-46.70
-38.00
-27.72
-16.65
-5.61
4.60
13.31
19.97
24.28
26.28
26.28
24.78
22.33
19.51
16.81
14.68
13.42
13.17
13.87
15.21
16.86
18.55
20.09
21.39
22.34
22.81
22.59
21.52
19.60
16.97
13.93
10.81
7.81
5.00
2.20
-0.76
-4.05
-7.60
-11.21
-14.55
-17.38
-19.68
-21.66
-23.74
-26.32
-29.68
-33.82
-38.46
-43.07
-46.94
-49.25
-49.20
-46.22
-40.10
-31.16
-20.22
-8.44
2.99
13.13
21.41
27.62
31.80
34.04
34.49
33.37
30.99
27.79
24.32
21.09
18.48
16.71
15.82
15.76
16.36
17.43
18.72
19.92
20.71
20.77
19.94
18.20
15.66
12.56
9.10
5.41
1.52
-2.58
-6.89
-11.36
-15.88
-20.34
-24.66
-28.81
-32.90
-37.23
-42.15
-47.94
-54.53
-61.34
-67.27
-70.90
-70.99
-66.85
-58.54
-46.88
-33.14
-18.74
-4.96
7.27
17.40
25.24
30.96
34.84
37.20
38.34
38.45
37.71
36.37
34.66
32.82
31.08
29.61
28.58
28.17
28.49
29.50
30.97
32.45
33.41
33.46
32.36
30.09
26.86
22.95
18.65
14.23
9.83
5.49
1.15
-3.21
-7.57
-11.83
-15.95
-19.98
-24.10
-28.57
-33.60
-39.23
-45.32
-51.45
-56.95
-60.93
-62.37
-60.29
-54.17
-44.11
-30.96
-16.14
-1.29
12.20
23.45
32.18
38.50
42.72
45.08
45.78
44.99
42.97
40.21
37.32
34.93
33.48
33.08
33.51
34.41
35.38
36.21
36.80
37.13
37.15
36.70
35.53
33.44
30.38
26.52
22.21
17.88
13.80
10.06
6.54
2.97
-0.83
-4.89
-9.10
-13.22
-17.08
-20.63
-23.96
-27.32
-31.04
-35.43
-40.64
-46.59
-52.73
-58.14
-61.60
-61.94
-58.37
-50.76
-39.72
-26.41
-12.24
1.46
13.67
23.76
31.46
36.74
39.70
40.56
39.70
37.58
34.81
31.95
29.53
27.82
26.89
26.59
26.66
26.89
27.17
27.48
27.80
28.06
28.07
27.55
26.25
24.06
21.01
17.34
13.31
9.19
5.15
1.24
-2.53
-6.14
-9.58
-12.87
-16.00
-19.03
-22.05
-25.25
-28.85
-33.05
-37.87
-42.97
-47.63
-50.77
-51.27
-48.29
-41.57
-31.61
-19.48
-6.57
5.79
16.57
25.18
31.42
35.36
37.19
37.18
35.63
32.93
29.56
26.07
22.97
20.64
19.29
18.87
19.16
19.89
20.77
21.56
22.02
21.99
21.32
19.93
17.81
15.07
11.88
8.40
4.77
1.05
-2.72
-6.54
-10.41
-14.25
-18.01
-21.61
-25.01
-28.21
-31.35
-34.65
-38.41
-42.90
-48.14
-53.78
-59.04
-62.79
-63.82
-61.17
-54.50
-44.18
-31.27
-17.20
-3.42
8.90
19.09
26.88
32.32
35.65
37.16
37.20
36.15
34.42
32.47
30.65
29.21
28.28
27.84
27.77
27.94
28.25
28.60
28.93
29.19
29.20
28.75
27.57
25.46
22.46
18.85
15.08
11.59
8.58
5.94
3.35
0.43
-3.05
-7.07
-11.39
-15.66
-19.58
-22.93
-25.70
-28.00
-30.14
-32.56
-35.77
-40.19
-45.84
-52.21
-58.18
-62.28
-63.08
-59.70
-52.09
-41.04
-27.92
-14.27
-1.37
9.97
19.34
26.63
31.90
35.22
36.79
36.86
35.87
34.28
32.55
31.00
29.84
29.10
28.75
28.72
28.96
29.43
30.12
30.97
31.85
32.53
32.71
32.08
30.51
28.00
24.82
21.30
17.76
14.38
11.22
8.23
5.36
2.63
0.08
-2.26
-4.48
-6.75
-9.34
-12.38
-15.87
-19.58
-23.16
-26.27
-28.75
-30.76
-32.69
-35.05
-38.33
-42.80
-48.42
-54.72
-60.85
-65.64
-67.84
-66.41
-60.83
-51.29
-38.70
-24.51
-10.31
2.55
13.19
21.29
26.92
30.44
32.22
32.62
31.94
30.50
28.67
26.75
25.08
23.83
23.04
22.68
22.70
23.10
23.94
25.29
27.03
28.86
30.29
30.78
29.99
27.83
24.59
20.76
16.86
13.27
10.15
7.50
5.19
3.09
1.02
-1.16
-3.60
-6.36
-9.37
-12.48
-15.52
-18.37
-20.98
-23.38
-25.70
-28.08
-30.76
-34.05
-38.19
-43.19
-48.63
-53.57
-56.71
-56.78
-52.92
-45.03
-33.85
-20.72
-7.24
5.20
15.63
23.58
29.02
32.15
33.33
32.94
31.40
29.17
26.72
24.49
22.80
21.80
21.44
21.57
21.99
22.56
23.20
23.92
24.69
25.40
25.87
25.88
25.24
23.81
21.61
18.73
15.36
11.71
8.03
4.51
1.31
-1.49
-3.97
-6.31
-8.78
-11.59
-14.79
-18.22
-21.60
-24.61
-27.10
-29.12
-30.95
-32.96
-35.57
-39.08
-43.58
-48.89
-54.45
-59.36
-62.49
-62.71
-59.23
-51.86
-41.12
-28.12
-14.30
-1.01
10.72
20.28
27.46
32.28
34.90
35.59
34.70
32.72
30.27
27.92
26.15
25.16
24.85
24.98
25.31
25.67
26.08
26.56
27.14
27.70
28.07
28.05
27.49
26.31
24.49
22.02
18.95
15.41
11.67
8.05
4.80
2.01
-0.43
-2.75
-5.18
-7.89
-10.88
-14.04
-17.20
-20.20
-22.93
-25.38
-27.65
-29.99
-32.67
-36.01
-40.14
-44.97
-50.05
-54.61
-57.65
-58.14
-55.32
-48.89
-39.21
-27.22
-14.18
-1.37
10.17
19.80
27.22
32.39
35.41
36.47
35.89
34.10
31.60
28.88
26.39
24.44
23.19
22.66
22.77
23.39
24.35
25.43
26.41
27.07
27.23
26.78
25.71
24.08
22.00
19.61
16.99
14.21
11.35
8.45
5.55
2.69
-0.11
-2.91
-5.71
-8.51
-11.22
-13.77
-16.06
-18.13
-20.07
-22.02
-24.20
-26.76
-29.83
-33.46
-37.58
-41.98
-46.35
-50.20
-52.89
-53.74
-52.08
-47.52
-40.07
-30.23
-18.91
-7.20
3.88
13.58
21.45
27.30
31.06
32.72
32.42
30.45
27.34
23.76
20.40
17.77
16.13
15.51
15.74
16.57
17.71
18.94
20.05
20.91
21.41
21.45
20.93
19.74
17.92
15.60
13.01
10.40
7.88
5.38
2.69
-0.37
-3.84
-7.56
-11.24
-14.58
-17.39
-19.65
-21.46
-23.07
-24.83
-27.12
-30.29
-34.48
-39.44
-44.48
-48.49
-50.30
-48.95
-44.08
-36.02
-25.73
-14.43
-3.31
6.78
15.36
22.26
27.43
30.79
32.31
32.02
30.15
27.15
23.63
20.23
17.47
15.64
14.82
14.88
15.58
16.65
17.84
18.94
19.84
20.44
20.64
20.30
19.24
17.36
14.65
11.30
7.62
3.93
0.45
-2.78
-5.87
-9.02
-12.35
-15.84
-19.34
-22.64
-25.62
-28.29
-30.85
-33.61
-36.92
-40.94
-45.58
-50.38
-54.54
-57.06
-56.98
-53.70
-47.11
-37.71
-26.43
-14.42
-2.73
7.85
16.88
24.17
29.65
33.28
35.00
34.91
33.28
30.64
27.67
25.03
23.17
22.25
22.19
22.71
23.52
24.40
25.25
25.98
26.49
26.62
26.21
25.13
23.37
21.14
18.67
16.18
13.76
11.35
8.79
5.98
2.87
-0.49
-4.06
-7.72
-11.40
-14.92
-18.07
-20.70
-22.78
-24.48
-26.17
-28.30
-31.25
-35.30
-40.45
-46.39
-52.40
-57.35
-59.88
-58.81
-53.59
-44.52
-32.71
-19.68
-6.95
4.44
13.98
21.59
27.32
31.32
33.67
34.49
34.04
32.67
30.75
28.66
26.75
25.30
24.45
24.26
24.62
25.38
26.34
27.32
28.20
28.82
29.04
28.66
27.57
25.74
23.29
20.43
17.37
14.29
11.25
8.28
5.38
2.62
0.02
-2.43
-4.83
-7.33
-10.04
-12.99
-16.00
-18.78
-21.07
-22.83
-24.29
-25.96
-28.42
-32.12
-37.13
-43.09
-49.23
-54.49
-57.72
-57.90
-54.38
-47.11
-36.70
-24.30
-11.35
0.80
11.19
19.35
25.26
29.13
31.26
31.99
31.67
30.67
29.30
27.84
26.44
25.18
24.18
23.56
23.46
23.89
24.74
25.79
26.77
27.48
27.75
27.53
26.73
25.32
23.27
20.64
17.55
14.20
10.85
7.75
5.11
2.99
1.28
-0.36
-2.31
-4.84
-8.03
-11.69
-15.45
-18.98
-22.08
-24.69
-26.86
-28.75
-30.59
-32.72
-35.58
-39.46
-44.23
-49.17
-53.04
-54.40
-52.17
-45.98
-36.31
-24.39
-11.70
0.39
10.87
19.24
25.35
29.27
31.16
31.24
29.83
27.41
24.59
22.03
20.17
19.19
18.94
19.09
19.34
19.56
19.78
20.14
20.68
21.33
21.89
22.05
21.50
20.05
17.62
14.39
10.69
6.95
3.53
0.55
-2.15
-4.79
-7.52
-10.32
-12.97
-15.31
-17.36
-19.36
-21.67
-24.59
-28.23
-32.51
-37.25
-42.13
-46.70
-50.30
-52.04
-51.04
-46.70
-39.01
-28.69
-16.95
-5.18
5.50
14.44
21.53
26.93
30.82
33.20
33.98
33.15
30.95
27.97
24.95
22.54
21.11
20.68
21.04
21.88
22.94
24.03
25.02
25.74
26.08
25.94
25.28
24.08
22.37
20.16
17.51
14.52
11.38
8.28
5.33
2.54
-0.17
-2.98
-6.03
-9.38
-12.98
-16.69
-20.29
-23.56
-26.36
-28.72
-30.82
-32.98
-35.62
-39.06
-43.44
-48.55
-53.83
-58.33
-60.91
-60.46
-56.31
-48.42
-37.44
-24.63
-11.43
0.87
11.38
19.70
25.81
29.90
32.23
33.08
32.75
31.57
29.90
28.09
26.42
25.11
24.29
24.02
24.31
25.06
26.12
27.30
28.34
29.05
29.25
28.84
27.72
25.89
23.41
20.40
17.09
13.70
10.52
7.70
5.28
3.13
0.99
-1.43
-4.30
-7.64
-11.27
-14.91
-18.26
-21.13
-23.46
-25.32
-26.99
-28.86
-31.43
-35.15
-40.23
-46.41
-52.91
-58.48
-61.71
-61.43
-57.05
-48.74
-37.40
-24.35
-11.02
1.39
12.06
20.60
26.94
31.19
33.54
34.21
33.50
31.79
29.55
27.31
25.49
24.37
24.01
24.28
24.94
25.74
26.50
27.15
27.73
28.26
28.70
28.85
28.46
27.30
25.26
22.46
19.14
15.63
12.18
8.94
5.97
3.26
0.77
-1.58
-3.93
-6.47
-9.30
-12.43
-15.69
-18.84
-21.69
-24.25
-26.70
-29.38
-32.67
-36.76
-41.60
-46.80
-51.61
-55.06
-56.13
-54.02
-48.38
-39.50
-28.20
-15.69
-3.25
8.07
17.50
24.66
29.45
31.93
32.35
31.08
28.64
25.67
22.87
20.80
19.80
19.87
20.70
21.85
22.94
23.75
24.26
24.57
24.68
24.53
23.92
22.71
20.85
18.47
15.80
13.06
10.39
7.80
5.17
2.38
-0.68
-3.98
-7.38
-10.65
-13.56
-16.01
-18.07
-20.00
-22.18
-24.98
-28.65
-33.17
-38.23
-43.20
-47.17
-49.05
-47.91
-43.22
-35.13
-24.50
-12.69
-1.14
9.03
17.22
23.37
27.70
30.53
32.01
32.24
31.29
29.32
26.66
23.74
21.02
18.87
17.54
17.10
17.43
18.30
19.38
20.35
20.99
21.14
20.74
19.74
18.10
15.79
12.86
9.44
5.75
1.99
-1.74
-5.44
-9.22
-13.07
-16.93
-20.59
-23.87
-26.74
-29.41
-32.28
-35.77
-40.15
-45.40
-51.07
-56.38
-60.28
-61.70
-59.77
-54.14
-45.10
-33.54
-20.77
-8.09
3.47
13.35
21.40
27.65
32.17
34.98
36.13
35.79
34.31
32.17
29.90
27.93
26.54
25.85
25.83
26.30
27.06
27.85
28.46
28.76
28.64
27.98
26.60
24.41
21.44
18.01
14.56
11.48
8.91
6.58
4.02
0.75
-3.32
-7.93
-12.52
-16.57
-19.75
-22.14
-24.08
-26.09
-28.71
-32.32
-37.06
-42.69
-48.53
-53.54
-56.49
-56.32
-52.37
-44.63
-33.75
-20.95
-7.64
4.77
15.28
23.37
28.98
32.40
34.04
34.29
33.54
32.13
30.44
28.81
27.55
26.76
26.43
26.40
26.50
26.62
26.73
26.88
27.12
27.49
27.84
27.89
27.26
25.64
22.92
19.31
15.28
11.32
7.73
4.54
1.58
-1.36
-4.40
-7.51
-10.64
-13.75
-16.81
-19.84
-22.85
-25.86
-28.97
-32.44
-36.56
-41.44
-46.87
-52.12
-56.12
-57.73
-56.04
-50.72
-42.10
-31.06
-18.83
-6.68
4.34
13.57
20.75
25.91
29.23
30.89
31.07
29.99
27.98
25.51
23.09
21.18
20.09
19.90
20.49
21.61
22.97
24.23
25.12
25.44
25.08
24.02
22.32
20.06
17.37
14.39
11.28
8.22
5.29
2.48
-0.31
-3.22
-6.35
-9.65
-13.03
-16.35
-19.49
-22.47
-25.45
-28.68
-32.36
-36.51
-40.87
-44.83
-47.54
-48.10
-45.85
-40.56
-32.43
-22.18
-10.76
0.73
11.26
20.00
26.38
30.17
31.42
30.44
27.77
24.11
20.27
17.06
15.08
14.53
15.24
16.66
18.18
19.30
19.77
19.61
18.94
17.87
16.45
14.72
12.68
10.33
7.69
4.73
1.44
-2.15
-6.00
-10.00
-14.06
-18.05
-21.79
-25.17
-28.17
-31.04
-34.20
-38.13
-43.00
-48.42
-53.41
-56.61
-56.74
-53.07
-45.60
-35.10
-22.80
-10.06
1.93
12.35
20.76
27.05
31.32
33.73
34.49
33.89
32.38
30.52
28.86
27.76
27.27
27.12
26.99
26.67
26.21
25.83
25.75
25.93
26.10
25.81
24.68
22.59
19.66
16.24
12.69
9.26
6.01
2.84
-0.41
-3.89
-7.61
-11.45
-15.23
-18.78
-22.02
-25.01
-27.93
-31.04
-34.60
-38.82
-43.69
-48.85
-53.51
-56.53
-56.73
-53.31
-46.13
-35.89
-23.85
-11.40
0.27
10.51
19.07
25.99
31.30
34.97
36.94
37.29
36.29
34.42
32.27
30.34
29.00
28.36
28.36
28.80
29.46
30.13
30.65
30.91
30.85
30.43
29.59
28.27
26.41
23.99
21.08
17.85
14.54
11.39
8.54
6.01
3.65
1.22
-1.50
-4.63
-8.14
-11.84
-15.51
-18.91
-21.91
-24.48
-26.75
-28.92
-31.31
-34.28
-38.17
-43.11
-48.87
-54.71
-59.48
-61.83
-60.65
-55.44
-46.51
-34.82
-21.76
-8.66
3.41
13.81
22.27
28.75
33.29
35.99
36.96
36.41
34.73
32.44
30.12
28.30
27.28
27.12
27.65
28.58
29.64
30.64
31.43
31.85
31.73
30.95
29.49
27.45
25.09
22.60
20.10
17.59
14.96
12.16
9.19
6.12
3.06
0.08
-2.81
-5.58
-8.25
-10.83
-13.31
-15.69
-17.98
-20.16
-22.26
-24.42
-26.87
-29.89
-33.78
-38.62
-44.20
-49.86
-54.61
-57.34
-57.06
-53.21
-45.84
-35.62
-23.61
-11.06
0.84
11.27
19.73
26.01
30.15
32.28
32.63
31.52
29.28
26.32
23.08
20.04
17.65
16.25
15.96
16.65
18.03
19.70
21.31
22.58
23.28
23.21
22.23
20.32
17.63
14.49
11.34
8.55
6.24
4.23
2.19
-0.22
-3.22
-6.79
-10.67
-14.48
-17.89
-20.69
-22.91
-24.82
-26.82
-29.34
-32.64
-36.73
-41.29
-45.63
-48.78
-49.67
-47.42
-41.63
-32.60
-21.23
-8.87
3.12
13.69
22.19
28.35
32.14
33.65
33.16
31.14
28.20
25.04
22.20
20.04
18.69
18.14
18.27
18.88
19.65
20.28
20.54
20.36
19.88
19.29
18.68
17.93
16.86
15.26
13.15
10.65
7.97
5.21
2.37
-0.67
-3.99
-7.57
-11.31
-15.00
-18.45
-21.50
-24.10
-26.41
-28.74
-31.55
-35.23
-39.97
-45.55
-51.37
-56.52
-59.96
-60.77
-58.32
-52.39
-43.33
-31.90
-19.25
-6.60
4.94
14.65
22.21
27.64
31.21
33.23
33.97
33.64
32.38
30.38
27.95
25.50
23.53
22.41
22.27
22.97
24.16
25.44
26.51
27.28
27.73
27.83
27.45
26.38
24.42
21.57
18.07
14.32
10.72
7.51
4.68
2.03
-0.75
-3.91
-7.49
-11.35
-15.19
-18.73
-21.81
-24.47
-26.89
-29.33
-32.06
-35.32
-39.27
-43.85
-48.75
-53.26
-56.35
-56.91
-54.07
-47.56
-37.79
-25.81
-12.93
-0.44
10.68
19.81
26.73
31.48
34.26
35.34
35.02
33.60
31.40
28.78
26.14
23.89
22.29
21.41
21.15
21.32
21.75
22.38
23.15
23.97
24.62
24.74
24.01
22.27
19.56
16.17
12.50
8.93
5.69
2.78
0.02
-2.87
-6.08
-9.60
-13.25
-16.69
-19.72
-22.34
-24.74
-27.22
-30.04
-33.34
-37.11
-41.21
-45.32
-48.89
-51.06
-50.91
-47.69
-41.20
-31.91
-20.87
-9.36
1.48
10.92
18.59
24.40
28.35
30.42
30.65
29.21
26.49
23.07
19.64
16.78
14.90
14.08
14.18
14.92
15.97
17.07
18.00
18.53
18.47
17.71
16.32
14.46
12.38
10.27
8.10
5.67
2.81
-0.56
-4.28
-8.12
-11.82
-15.30
-18.57
-21.73
-24.87
-28.13
-31.62
-35.44
-39.49
-43.40
-46.40
-47.53
-45.90
-41.01
-32.97
-22.55
-10.85
0.84
11.47
20.29
26.93
31.32
33.62
34.00
32.71
30.04
26.45
22.54
19.00
16.41
15.02
14.75
15.24
16.08
16.91
17.51
17.76
17.57
16.86
15.58
13.83
11.71
9.38
6.92
4.32
1.48
-1.68
-5.24
-9.22
-13.45
-17.69
-21.65
-25.08
-27.99
-30.64
-33.49
-37.03
-41.40
-46.25
-50.78
-53.86
-54.34
-51.43
-44.87
-35.06
-22.97
-9.97
2.55
13.49
22.21
28.52
32.46
34.24
34.14
32.55
30.03
27.23
24.75
22.97
21.98
21.63
21.66
21.88
22.11
22.26
22.24
22.04
21.66
21.15
20.48
19.51
18.06
15.95
13.14
9.78
6.05
2.11
-1.94
-6.04
-10.07
-13.80
-17.00
-19.63
-21.88
-24.18
-27.05
-30.86
-35.74
-41.38
-47.03
-51.56
-53.74
-52.46
-47.22
-38.27
-26.61
-13.69
-1.01
10.27
19.44
26.21
30.61
32.91
33.46
32.75
31.29
29.51
27.74
26.15
24.82
23.79
23.03
22.49
22.12
21.90
21.87
22.11
22.61
23.19
23.48
23.03
21.55
19.06
15.91
12.60
9.54
6.85
4.39
1.83
-1.05
-4.33
-7.83
-11.28
-14.44
-17.26
-19.89
-22.61
-25.73
-29.46
-33.82
-38.62
-43.46
-47.76
-50.80
-51.83
-50.22
-45.63
-38.19
-28.54
-17.71
-6.86
3.06
11.45
18.14
23.21
26.81
29.02
29.87
29.34
27.54
24.74
21.46
18.33
15.97
14.82
14.99
16.25
18.11
20.00
21.42
22.06
21.75
20.48
18.33
15.55
12.45
9.43
6.77
4.56
2.66
0.81
-1.27
-3.70
-6.49
-9.57
-12.82
-16.12
-19.35
-22.43
-25.39
-28.36
-31.54
-35.00
-38.56
-41.62
-43.38
-42.96
-39.81
-33.81
-25.40
-15.36
-4.69
5.65
14.85
22.35
27.80
31.08
32.23
31.41
28.96
25.43
21.56
18.13
15.77
14.79
15.05
16.08
17.32
18.31
18.75
18.58
17.84
16.60
14.96
12.99
10.84
8.60
6.26
3.75
0.89
-2.42
-6.20
-10.29
-14.46
-18.49
-22.17
-25.47
-28.47
-31.46
-34.77
-38.70
-43.31
-48.20
-52.56
-55.30
-55.31
-51.89
-44.94
-35.04
-23.30
-11.03
0.58
10.68
18.83
24.95
29.16
31.68
32.75
32.64
31.62
30.01
28.15
26.37
24.90
23.84
23.21
22.93
22.87
22.88
22.83
22.59
22.05
21.15
19.84
18.05
15.76
12.93
9.54
5.66
1.45
-2.89
-7.08
-10.88
-14.20
-17.12
-19.86
-22.81
-26.31
-30.61
-35.66
-41.02
-45.95
-49.44
-50.51
-48.45
-43.06
-34.68
-24.13
-12.51
-0.93
9.65
18.60
25.57
30.50
33.45
34.60
34.19
32.53
30.10
27.41
24.97
23.16
22.08
21.61
21.48
21.36
21.06
20.49
19.73
18.85
17.91
16.89
15.67
14.06
11.89
9.06
5.59
1.66
-2.50
-6.60
-10.46
-14.05
-17.44
-20.85
-24.49
-28.57
-33.19
-38.21
-43.25
-47.59
-50.33
-50.54
-47.56
-41.23
-31.94
-20.59
-8.38
3.51
14.07
22.64
28.88
32.74
34.38
34.16
32.51
29.98
27.11
24.37
22.11
20.48
19.45
18.87
18.51
18.21
17.88
17.54
17.26
17.04
16.79
16.24
15.06
12.96
9.87
5.98
1.65
-2.73
-6.90
-10.80
-14.55
-18.32
-22.32
-26.73
-31.65
-37.01
-42.45
-47.22
-50.25
-50.46
-47.09
-40.02
-29.90
-17.93
-5.54
6.05
15.98
23.84
29.51
33.07
34.65
34.47
32.81
30.11
26.90
23.74
21.11
19.31
18.38
18.16
18.36
18.67
18.90
18.91
18.67
18.16
17.36
16.19
14.58
12.46
9.83
6.73
3.26
-0.46
-4.28
-8.10
-11.89
-15.63
-19.34
-23.05
-26.81
-30.71
-34.92
-39.51
-44.39
-49.03
-52.56
-53.90
-52.15
-46.86
-38.27
-27.17
-14.65
-1.83
10.32
21.03
29.72
35.91
39.34
40.05
38.46
35.33
31.58
28.04
25.32
23.65
22.95
22.97
23.41
24.04
24.67
25.22
25.59
25.66
25.34
24.53
23.17
21.30
19.01
16.46
13.83
11.18
8.47
5.46
1.90
-2.33
-7.11
-12.03
-16.59
-20.39
-23.32
-25.67
-27.96
-30.77
-34.51
-39.31
-44.92
-50.73
-55.82
-59.04
-59.26
-55.68
-48.09
-37.04
-23.74
-9.71
3.60
15.16
24.43
31.28
35.78
38.08
38.37
36.95
34.27
30.95
27.66
24.94
23.10
22.13
21.84
21.95
22.26
22.69
23.22
23.85
24.45
24.80
24.58
23.53
21.53
18.65
15.15
11.33
7.45
3.64
-0.02
-3.52
-6.88
-10.09
-13.20
-16.25
-19.31
-22.42
-25.63
-29.01
-32.68
-36.80
-41.43
-46.28
-50.69
-53.65
-54.05
-51.10
-44.58
-35.01
-23.39
-10.94
1.24
12.31
21.75
29.20
34.39
37.15
37.51
35.75
32.47
28.40
24.26
20.60
17.77
15.85
14.84
14.66
15.17
16.14
17.32
18.36
18.95
18.86
17.95
16.24
13.84
10.90
7.59
4.03
0.27
-3.71
-7.90
-12.25
-16.59
-20.74
-24.55
-28.03
-31.43
-35.11
-39.44
-44.58
-50.35
-56.17
-61.11
-64.06
-63.97
-60.20
-52.64
-41.85
-28.89
-15.04
-1.51
10.75
21.17
29.43
35.34
38.86
40.06
39.19
36.73
33.33
29.73
26.53
24.18
22.84
22.44
22.72
23.39
24.19
24.94
25.50
25.77
25.56
24.71
23.10
20.76
17.86
14.68
11.39
7.99
4.31
0.18
-4.41
-9.28
-14.04
-18.34
-22.02
-25.21
-28.25
-31.56
-35.57
-40.47
-46.20
-52.33
-58.09
-62.37
-63.97
-61.90
-55.72
-45.70
-32.82
-18.50
-4.26
8.69
19.57
28.03
34.06
37.78
39.38
39.13
37.42
34.76
31.75
28.94
26.71
25.22
24.46
24.27
24.51
25.07
25.88
26.83
27.77
28.45
28.57
27.87
26.19
23.53
20.11
16.23
12.21
8.25
4.40
0.59
-3.30
-7.31
-11.35
-15.26
-18.85
-22.04
-24.90
-27.71
-30.84
-34.69
-39.51
-45.22
-51.36
-57.01
-60.95
-61.95
-59.16
-52.31
-41.86
-28.86
-14.68
-0.71
11.92
22.47
30.62
36.34
39.79
41.25
40.99
39.33
36.66
33.44
30.18
27.36
25.33
24.23
24.01
24.50
25.51
26.82
28.23
29.45
30.15
29.98
28.71
26.25
22.75
18.51
13.91
9.33
5.04
1.17
-2.30
-5.56
-8.86
-12.37
-16.13
-19.99
-23.70
-27.09
-30.16
-33.15
-36.45
-40.42
-45.12
-50.15
-54.61
-57.30
-57.02
-53.03
-45.23
-34.28
-21.38
-7.88
4.98
16.34
25.63
32.50
36.69
38.12
36.96
33.73
29.24
24.43
20.15
16.97
15.16
14.66
15.21
16.38
17.74
18.88
19.53
19.61
19.16
18.32
17.14
15.60
13.50
10.63
6.91
2.45
-2.42
-7.27
-11.73
-15.67
-19.17
-22.52
-26.07
-30.08
-34.73
-39.99
-45.63
-51.16
-55.81
-58.54
-58.36
-54.54
-46.92
-35.98
-22.84
-8.86
4.61
16.52
26.23
33.47
38.24
40.62
40.82
39.09
35.83
31.63
27.20
23.29
20.48
19.06
18.96
19.81
21.08
22.27
23.01
23.15
22.69
21.70
20.26
18.34
15.85
12.64
8.64
3.94
-1.20
-6.43
-11.37
-15.82
-19.78
-23.40
-26.95
-30.66
-34.71
-39.23
-44.31
-49.91
-55.69
-60.91
-64.47
-65.07
-61.73
-54.12
-42.76
-28.85
-13.95
0.53
13.52
24.44
32.98
39.03
42.59
43.78
42.91
40.50
37.21
33.77
30.84
28.84
27.91
27.92
28.52
29.34
30.06
30.48
30.50
30.03
28.93
27.11
24.60
21.52
18.11
14.61
11.11
7.53
3.71
-0.47
-5.01
-9.76
-14.47
-18.90
-22.86
-26.34
-29.51
-32.74
-36.52
-41.25
-47.00
-53.26
-58.91
-62.46
-62.47
-58.05
-49.18
-36.74
-22.24
-7.29
6.72
18.91
28.83
36.35
41.47
44.24
44.86
43.74
41.55
38.98
36.66
34.92
33.80
33.14
32.76
32.57
32.57
32.79
33.21
33.65
33.85
33.50
32.39
30.39
27.56
24.06
20.18
16.21
12.40
8.85
5.50
2.23
-1.09
-4.56
-8.18
-11.92
-15.68
-19.34
-22.78
-25.95
-28.91
-31.87
-35.16
-39.13
-43.96
-49.49
-55.13
-59.92
-62.70
-62.40
-58.34
-50.44
-39.25
-25.88
-11.68
2.03
14.17
24.07
31.35
35.96
38.00
37.82
35.89
32.88
29.48
26.37
24.00
22.66
22.37
22.97
24.14
25.50
26.72
27.51
27.75
27.40
26.47
24.97
22.94
20.49
17.80
15.03
12.29
9.52
6.54
3.18
-0.58
-4.60
-8.61
-12.33
-15.59
-18.35
-20.67
-22.72
-24.77
-27.22
-30.50
-34.88
-40.23
-45.87
-50.60
-53.04
-52.01
-46.93
-38.04
-26.30
-13.18
-0.16
11.54
21.15
28.33
33.06
35.48
35.80
34.38
31.74
28.61
25.72
23.63
22.54
22.24
22.31
22.39
22.35
22.34
22.59
23.21
24.10
24.87
25.06
24.27
22.28
19.13
15.05
10.40
5.61
1.07
-2.90
-6.23
-9.03
-11.58
-14.19
-17.08
-20.25
-23.56
-26.83
-29.94
-32.94
-36.07
-39.67
-44.02
-49.11
-54.50
-59.29
-62.27
-62.26
-58.50
-50.92
-40.15
-27.36
-13.88
-0.91
10.67
20.36
27.95
33.37
36.67
37.99
37.61
35.97
33.62
31.11
28.90
27.25
26.23
25.76
25.70
25.92
26.34
26.90
27.49
27.94
28.03
27.53
26.28
24.25
21.56
18.42
15.14
12.01
9.22
6.80
4.64
2.49
0.11
-2.72
-6.07
-9.85
-13.80
-17.60
-20.95
-23.65
-25.74
-27.49
-29.34
-31.86
-35.48
-40.35
-46.20
-52.24
-57.24
-59.81
-58.80
-53.64
-44.63
-32.79
-19.66
-6.75
4.77
14.27
21.61
26.91
30.38
32.22
32.64
31.93
30.44
28.55
26.61
24.87
23.50
22.57
22.13
22.16
22.59
23.32
24.23
25.17
25.94
26.32
26.05
24.98
23.08
20.52
17.56
14.49
11.49
8.67
6.02
3.53
1.19
-1.07
-3.37
-5.85
-8.62
-11.69
-14.92
-18.07
-20.94
-23.41
-25.51
-27.41
-29.34
-31.61
-34.49
-38.16
-42.63
-47.56
-52.25
-55.68
-56.80
-54.74
-49.13
-40.27
-29.01
-16.62
-4.46
6.35
15.10
21.51
25.66
27.81
28.30
27.49
25.79
23.65
21.53
19.83
18.74
18.25
18.18
18.30
18.45
18.59
18.78
19.06
19.37
19.61
19.57
19.09
18.01
16.29
13.96
11.18
8.18
5.22
2.46
-0.04
-2.33
-4.58
-6.93
-9.45
-12.13
-14.84
-17.46
-19.87
-22.06
-24.11
-26.20
-28.59
-31.54
-35.21
-39.57
-44.28
-48.66
-51.73
-52.46
-50.04
-44.18
-35.25
-24.22
-12.37
-0.93
9.21
17.55
23.90
28.25
30.62
31.11
29.94
27.58
24.62
21.65
19.19
17.52
16.69
16.58
16.96
17.58
18.26
18.88
19.41
19.80
19.91
19.59
18.67
17.12
15.03
12.60
10.06
7.55
5.07
2.54
-0.18
-3.25
-6.73
-10.63
-14.77
-18.87
-22.57
-25.61
-27.97
-29.94
-32.01
-34.75
-38.53
-43.39
-49.00
-54.69
-59.46
-62.22
-61.99
-58.16
-50.72
-40.29
-28.00
-15.16
-2.91
7.96
17.04
24.19
29.32
32.41
33.50
32.87
31.04
28.69
26.45
24.75
23.68
23.12
22.86
22.73
22.78
23.11
23.82
24.82
25.81
26.41
26.20
24.97
22.76
19.84
16.60
13.43
10.53
7.88
5.21
2.20
-1.37
-5.48
-9.88
-14.12
-17.85
-20.85
-23.26
-25.42
-27.85
-30.97
-35.05
-39.99
-45.36
-50.41
-54.11
-55.43
-53.51
-47.97
-39.04
-27.59
-14.90
-2.34
8.92
18.18
25.17
29.99
32.87
34.09
33.91
32.63
30.62
28.27
26.00
24.10
22.73
21.91
21.64
21.88
22.56
23.55
24.62
25.43
25.67
25.11
23.76
21.79
19.45
16.96
14.39
11.67
8.70
5.38
1.72
-2.19
-6.20
-10.16
-13.89
-17.21
-20.04
-22.45
-24.74
-27.38
-30.88
-35.48
-40.96
-46.55
-51.10
-53.38
-52.38
-47.62
-39.33
-28.35
-15.96
-3.56
7.68
16.97
23.98
28.73
31.43
32.35
31.80
30.13
27.77
25.13
22.62
20.50
18.90
17.90
17.53
17.82
18.73
20.06
21.50
22.64
23.14
22.73
21.35
19.05
16.01
12.50
8.79
5.10
1.57
-1.82
-5.16
-8.53
-11.92
-15.26
-18.44
-21.47
-24.48
-27.73
-31.57
-36.17
-41.46
-46.96
-51.83
-54.98
-55.35
-52.21
-45.45
-35.62
-23.81
-11.32
0.67
11.32
20.20
27.11
32.05
35.07
36.29
35.98
34.55
32.49
30.26
28.25
26.69
25.66
25.17
25.13
25.45
26.04
26.75
27.47
28.00
28.14
27.64
26.33
24.07
20.93
17.12
13.00
8.98
5.35
2.21
-0.60
-3.35
-6.35
-9.75
-13.48
-17.35
-21.04
-24.35
-27.23
-29.83
-32.48
-35.59
-39.51
-44.31
-49.66
-54.76
-58.45
-59.50
-57.03
-50.77
-41.15
-29.17
-16.11
-3.16
8.71
18.88
26.99
32.88
36.53
38.10
37.86
36.29
33.93
31.43
29.34
28.04
27.65
28.01
28.75
29.49
29.91
29.94
29.66
29.20
28.63
27.92
26.96
25.64
23.89
21.69
19.08
16.12
12.92
9.59
6.27
3.03
-0.15
-3.28
-6.43
-9.58
-12.71
-15.73
-18.57
-21.19
-23.62
-26.00
-28.52
-31.51
-35.26
-39.95
-45.41
-51.02
-55.76
-58.39
-57.82
-53.44
-45.33
-34.24
-21.41
-8.24
4.02
14.52
22.83
28.92
32.98
35.28
36.02
35.45
33.81
31.48
28.94
26.69
25.08
24.30
24.27
24.78
25.55
26.33
26.96
27.28
27.21
26.71
25.78
24.43
22.66
20.44
17.75
14.60
11.18
7.77
4.68
2.09
-0.06
-2.05
-4.29
-7.03
-10.29
-13.82
-17.27
-20.38
-23.08
-25.59
-28.26
-31.40
-35.23
-39.74
-44.66
-49.46
-53.34
-55.33
-54.51
-50.31
-42.73
-32.42
-20.54
-8.39
2.90
12.58
20.33
26.04
29.76
31.57
31.58
30.10
27.60
24.65
21.77
19.34
17.53
16.43
16.02
16.30
17.18
18.40
19.58
20.32
20.31
19.44
17.86
15.81
13.50
11.10
8.71
6.39
4.14
1.80
-0.85
-4.05
-7.83
-11.93
-15.87
-19.20
-21.76
-23.77
-25.73
-28.18
-31.45
-35.57
-40.28
-45.02
-48.99
-51.22
-50.74
-46.87
-39.50
-29.21
-17.22
-4.94
6.37
15.86
23.19
28.36
31.50
32.74
32.26
30.32
27.32
23.81
20.41
17.62
15.75
14.83
14.65
14.95
15.48
16.10
16.72
17.17
17.26
16.75
15.49
13.47
10.87
7.89
4.72
1.42
-2.07
-5.80
-9.81
-14.01
-18.24
-22.37
-26.29
-29.97
-33.53
-37.20
-41.33
-46.20
-51.87
-57.99
-63.66
-67.64
-68.63
-65.68
-58.56
-47.81
-34.58
-20.34
-6.42
6.16
16.80
25.27
31.55
35.75
38.05
38.75
38.21
36.91
35.29
33.70
32.35
31.33
30.65
30.28
30.24
30.54
31.13
31.81
32.28
32.20
31.28
29.42
26.73
23.44
19.85
16.17
12.52
8.84
5.03
1.02
-3.23
-7.65
-12.10
-16.45
-20.63
-24.62
-28.55
-32.62
-37.09
-42.11
-47.60
-53.12
-57.82
-60.56
-60.28
-56.27
-48.52
-37.64
-24.72
-10.99
2.47
14.83
25.51
34.10
40.38
44.24
45.82
45.44
43.63
41.01
38.17
35.65
33.79
32.72
32.34
32.43
32.73
33.04
33.26
33.28
32.98
32.16
30.70
28.55
25.83
22.72
19.45
16.13
12.75
9.27
5.60
1.70
-2.45
-6.79
-11.21
-15.51
-19.46
-22.92
-25.90
-28.69
-31.77
-35.67
-40.71
-46.81
-53.36
-59.31
-63.37
-64.32
-61.33
-54.20
-43.40
-30.00
-15.39
-1.05
11.83
22.44
30.39
35.70
38.57
39.32
38.30
35.94
32.74
29.31
26.22
23.93
22.62
22.16
22.27
22.64
23.09
23.58
24.10
24.51
24.56
23.97
22.51
20.19
17.25
13.96
10.58
7.18
3.69
-0.02
-3.99
-8.17
-12.37
-16.38
-20.07
-23.42
-26.52
-29.62
-33.06
-37.19
-42.18
-47.91
-53.69
-58.39
-60.66
-59.30
-53.75
-44.20
-31.61
-17.39
-3.00
10.38
21.86
30.93
37.32
40.97
42.07
41.08
38.67
35.60
32.52
29.85
27.75
26.21
25.17
24.59
24.50
24.92
25.74
26.79
27.75
28.30
28.14
27.00
24.75
21.40
17.18
12.47
7.73
3.35
-0.53
-4.02
-7.38
-10.88
-14.70
-18.86
-23.24
-27.66
-31.97
-36.08
-40.05
-44.13
-48.68
-53.94
-59.78
-65.45
-69.70
-71.11
-68.58
-61.77
-51.14
-37.80
-23.10
-8.29
5.63
17.96
28.19
36.00
41.29
44.09
44.67
43.46
41.07
38.15
35.34
33.11
31.66
30.94
30.73
30.82
31.10
31.48
31.88
32.12
31.92
31.02
29.30
26.81
23.78
20.47
17.11
13.86
10.73
7.62
4.35
0.73
-3.35
-7.87
-12.62
-17.28
-21.54
-25.22
-28.38
-31.27
-34.36
-38.20
-43.24
-49.56
-56.59
-63.12
-67.47
-67.98
-63.61
-54.30
-41.03
-25.48
-9.49
5.40
18.22
28.50
36.13
41.15
43.73
44.11
42.75
40.27
37.40
34.75
32.73
31.36
30.39
29.51
28.54
27.57
26.90
26.82
27.39
28.35
29.12
29.11
27.92
25.48
22.06
18.09
13.98
9.95
6.07
2.27
-1.56
-5.45
-9.35
-13.16
-16.72
-20.01
-23.06
-26.03
-29.12
-32.55
-36.51
-41.14
-46.45
-52.17
-57.71
-62.09
-64.25
-63.29
-58.73
-50.69
-39.77
-26.97
-13.35
0.04
12.24
22.49
30.22
35.18
37.40
37.21
35.12
31.76
27.80
23.93
20.76
18.75
18.08
18.59
19.89
21.44
22.75
23.47
23.40
22.52
20.96
18.91
16.60
14.19
11.69
9.01
5.97
2.46
-1.48
-5.75
-10.16
-14.54
-18.73
-22.67
-26.37
-29.98
-33.73
-37.90
-42.58
-47.52
-52.05
-55.26
-56.21
-54.18
-48.91
-40.57
-29.68
-17.09
-3.84
8.97
20.28
29.26
35.43
38.72
39.40
38.01
35.17
31.57
27.82
24.40
21.69
19.87
19.00
19.00
19.73
20.94
22.33
23.52
24.17
23.98
22.83
20.79
18.04
14.82
11.31
7.63
3.80
-0.21
-4.43
-8.82
-13.28
-17.63
-21.71
-25.40
-28.70
-31.76
-34.83
-38.28
-42.47
-47.59
-53.46
-59.44
-64.37
-66.87
-65.69
-60.15
-50.37
-37.27
-22.32
-7.14
6.90
18.84
28.20
34.89
39.09
41.10
41.32
40.21
38.26
35.97
33.80
32.11
31.09
30.73
30.84
31.19
31.56
31.85
32.03
32.07
31.84
31.15
29.77
27.54
24.53
20.97
17.18
13.48
10.02
6.74
3.37
-0.36
-4.61
-9.31
-14.14
-18.66
-22.55
-25.72
-28.40
-31.08
-34.29
-38.47
-43.75
-49.87
-56.09
-61.31
-64.18
-63.47
-58.40
-49.00
-36.11
-21.24
-6.10
7.81
19.56
28.77
35.45
39.82
42.10
42.50
41.34
39.05
36.18
33.31
30.92
29.28
28.43
28.22
28.45
28.92
29.51
30.12
30.67
30.96
30.73
29.71
27.75
24.88
21.35
17.54
13.84
10.47
7.42
4.53
1.56
-1.68
-5.24
-9.05
-12.96
-16.79
-20.42
-23.78
-26.93
-30.01
-33.26
-36.98
-41.39
-46.54
-52.13
-57.41
-61.27
-62.42
-59.84
-53.11
-42.61
-29.45
-15.15
-1.23
11.18
21.41
29.20
34.53
37.43
38.04
36.63
33.75
30.16
26.69
23.97
22.35
21.80
22.05
22.78
23.69
24.59
25.37
25.94
26.17
25.96
25.16
23.70
21.52
18.66
15.24
11.50
7.65
3.89
0.29
-3.19
-6.64
-10.09
-13.53
-16.90
-20.15
-23.27
-26.37
-29.66
-33.38
-37.75
-42.84
-48.43
-53.94
-58.40
-60.63
-59.52
-54.43
-45.42
-33.31
-19.48
-5.49
7.37
18.26
26.89
33.30
37.64
40.00
40.43
39.09
36.37
32.91
29.50
26.79
25.13
24.51
24.63
25.15
25.78
26.41
26.95
27.34
27.48
27.17
26.24
24.56
22.13
19.10
15.71
12.21
8.84
5.67
2.66
-0.36
-3.59
-7.13
-10.99
-15.01
-18.98
-22.70
-26.11
-29.25
-32.34
-35.64
-39.42
-43.84
-48.89
-54.29
-59.47
-63.53
-65.36
-63.95
-58.60
-49.30
-36.71
-22.09
-6.97
7.21
19.41
29.05
35.96
40.23
42.14
42.01
40.29
37.54
34.44
31.63
29.62
28.64
28.60
29.11
29.71
30.06
30.00
29.62
29.14
28.72
28.38
27.96
27.21
25.88
23.86
21.14
17.84
14.13
10.22
6.32
2.63
-0.72
-3.70
-6.39
-8.99
-11.68
-14.59
-17.69
-20.85
-23.92
-26.82
-29.59
-32.41
-35.52
-39.17
-43.55
-48.63
-54.10
-59.28
-63.15
-64.57
-62.56
-56.59
-46.82
-34.09
-19.72
-5.18
8.22
19.59
28.50
34.88
38.89
40.75
40.74
39.20
36.57
33.43
30.39
27.98
26.48
25.94
26.16
26.87
27.80
28.73
29.47
29.91
29.93
29.48
28.55
27.15
25.35
23.23
20.85
18.27
15.51
12.56
9.40
6.06
2.59
-0.90
-4.25
-7.37
-10.20
-12.80
-15.25
-17.66
-20.15
-22.76
-25.52
-28.45
-31.56
-34.92
-38.63
-42.86
-47.64
-52.81
-57.79
-61.65
-63.28
-61.68
-56.33
-47.34
-35.47
-21.95
-8.13
4.77
15.90
24.77
31.23
35.36
37.31
37.26
35.45
32.28
28.36
24.48
21.45
19.80
19.63
20.55
21.94
23.20
24.03
24.46
24.65
24.74
24.62
24.04
22.75
20.64
17.86
14.76
11.72
8.93
6.36
3.76
0.81
-2.72
-6.80
-11.15
-15.35
-18.97
-21.79
-23.86
-25.49
-27.13
-29.24
-32.19
-36.17
-41.17
-46.86
-52.53
-57.13
-59.37
-58.16
-52.90
-43.81
-31.87
-18.56
-5.40
6.42
16.25
23.92
29.51
33.20
35.11
35.37
34.17
31.86
28.90
25.80
22.99
20.78
19.33
18.67
18.76
19.55
20.87
22.51
24.14
25.36
25.81
25.19
23.46
20.76
17.43
13.89
10.49
7.43
4.73
2.23
-0.31
-3.12
-6.40
-10.22
-14.45
-18.80
-22.89
-26.39
-29.14
-31.32
-33.36
-35.85
-39.24
-43.71
-48.99
-54.38
-58.84
-61.25
-60.55
-56.12
-47.87
-36.44
-22.99
-9.00
4.10
15.22
23.81
29.75
33.26
34.72
34.56
33.19
31.07
28.62
26.25
24.26
22.85
22.05
21.76
21.77
21.90
22.03
22.17
22.39
22.74
23.17
23.46
23.27
22.29
20.36
17.55
14.16
10.58
7.14
3.96
0.98
-1.96
-5.03
-8.28
-11.65
-14.95
-18.04
-20.80
-23.27
-25.59
-28.00
-30.79
-34.22
-38.45
-43.47
-48.88
-53.91
-57.47
-58.39
-55.77
-49.30
-39.41
-27.18
-14.04
-1.35
9.90
19.22
26.49
31.78
35.18
36.67
36.32
34.33
31.21
27.61
24.26
21.71
20.19
19.69
19.98
20.79
21.83
22.91
23.83
24.46
24.65
24.30
23.36
21.77
19.62
17.06
14.31
11.54
8.84
6.15
3.27
-0.04
-3.89
-8.15
-12.52
-16.55
-19.87
-22.32
-24.10
-25.63
-27.46
-30.10
-33.82
-38.59
-44.01
-49.38
-53.70
-55.90
-55.00
-50.44
-42.29
-31.34
-18.87
-6.40
4.86
14.15
21.22
26.18
29.23
30.55
30.30
28.72
26.21
23.30
20.52
18.27
16.75
15.93
15.67
15.82
16.24
16.83
17.49
18.06
18.37
18.22
17.42
15.88
13.58
10.58
7.04
3.10
-1.02
-5.16
-9.11
-12.72
-15.89
-18.62
-21.07
-23.53
-26.36
-29.94
-34.48
-39.93
-45.92
-51.71
-56.31
-58.68
-57.92
-53.56
-45.66
-34.85
-22.22
-9.08
3.34
14.12
22.76
29.18
33.50
35.95
36.69
35.92
33.89
31.02
27.86
24.96
22.72
21.34
20.82
21.02
21.79
22.94
24.22
25.34
25.98
25.87
24.83
22.85
20.05
16.67
13.02
9.44
6.20
3.38
0.85
-1.75
-4.78
-8.48
-12.75
-17.26
-21.58
-25.45
-28.90
-32.23
-35.85
-40.07
-44.99
-50.37
-55.58
-59.72
-61.71
-60.54
-55.62
-46.96
-35.31
-21.91
-8.16
4.80
16.21
25.68
33.04
38.12
40.80
41.10
39.38
36.33
32.87
29.86
27.87
27.02
27.08
27.59
28.14
28.48
28.61
28.66
28.72
28.79
28.64
27.95
26.49
24.20
21.25
17.93
14.50
11.12
7.74
4.27
0.62
-3.20
-7.09
-10.95
-14.69
-18.26
-21.65
-24.82
-27.80
-30.71
-33.83
-37.57
-42.30
-48.13
-54.62
-60.81
-65.34
-66.88
-64.51
-58.03
-48.05
-35.74
-22.52
-9.70
1.77
11.32
18.72
23.93
27.02
28.18
27.71
26.05
23.72
21.32
19.36
18.25
18.18
19.15
21.05
23.71
26.97
30.63
34.44
38.08
41.12
43.15
43.83
43.03
40.81
37.47
33.44
29.15
24.94
20.96
17.19
13.47
9.58
5.44
1.08
-3.34
-7.62
-11.61
-15.23
-18.56
-21.77
-25.15
-29.03
-33.72
-39.25
-45.24
-50.84
-54.77
-55.79
-52.96
-46.06
-35.62
-22.78
-8.96
4.46
16.36
25.99
32.93
37.12
38.76
38.26
36.22
33.29
30.11
27.18
24.91
23.49
22.92
23.07
23.66
24.41
25.08
25.50
25.61
25.36
24.66
23.45
21.74
19.59
17.13
14.51
11.75
8.75
5.35
1.47
-2.85
-7.32
-11.60
-15.33
-18.34
-20.71
-22.72
-24.81
-27.46
-31.02
-35.60
-40.94
-46.33
-50.70
-52.79
-51.48
-46.18
-37.06
-25.08
-11.69
1.50
13.20
22.63
29.51
33.91
36.07
36.24
34.79
32.17
28.93
25.65
22.78
20.61
19.17
18.38
18.11
18.18
18.43
18.66
18.72
18.45
17.74
16.53
14.77
12.44
9.56
6.18
2.39
-1.64
-5.79
-9.91
-13.86
-17.59
-21.04
-24.29
-27.52
-31.03
-35.16
-40.15
-46.01
-52.32
-58.31
-62.85
-64.81
-63.25
-57.74
-48.52
-36.38
-22.53
-8.32
5.02
16.62
25.93
32.80
37.36
39.87
40.65
40.07
38.50
36.34
33.99
31.78
29.96
28.59
27.68
27.19
27.13
27.45
28.03
28.60
28.78
28.21
26.70
24.27
21.13
17.57
13.85
10.12
6.42
2.70
-1.06
-4.90
-8.81
-12.72
-16.58
-20.33
-23.96
-27.53
-31.23
-35.32
-40.04
-45.49
-51.46
-57.26
-61.78
-63.69
-61.84
-55.66
-45.45
-32.33
-17.92
-3.85
8.67
19.03
27.14
33.17
37.27
39.55
40.10
39.14
37.10
34.57
32.12
30.16
28.86
28.22
28.13
28.50
29.18
30.05
30.91
31.49
31.58
30.98
29.60
27.42
24.54
21.12
17.42
13.74
10.30
7.20
4.35
1.47
-1.70
-5.35
-9.50
-13.92
-18.31
-22.28
-25.62
-28.30
-30.60
-33.04
-36.22
-40.63
-46.36
-52.94
-59.31
-64.06
-65.80
-63.54
-57.01
-46.67
-33.63
-19.28
-5.05
7.89
18.74
27.12
32.95
36.41
37.80
37.53
36.06
33.89
31.51
29.30
27.52
26.28
25.53
25.16
25.10
25.28
25.70
26.33
27.04
27.58
27.62
26.86
25.16
22.61
19.49
16.14
12.85
9.71
6.65
3.49
0.10
-3.56
-7.33
-10.98
-14.31
-17.22
-19.80
-22.24
-24.85
-27.91
-31.64
-36.08
-41.12
-46.33
-50.99
-54.17
-54.87
-52.32
-46.28
-37.11
-25.78
-13.50
-1.48
9.39
18.57
25.81
30.98
33.98
34.80
33.57
30.70
26.80
22.62
18.85
15.98
14.30
13.85
14.49
15.93
17.73
19.38
20.39
20.44
19.48
17.67
15.34
12.82
10.35
8.01
5.72
3.31
0.54
-2.78
-6.71
-11.13
-15.75
-20.17
-24.03
-27.20
-29.79
-32.20
-34.92
-38.43
-42.94
-48.27
-53.75
-58.33
-60.74
-59.84
-55.01
-46.30
-34.48
-20.84
-6.86
6.13
17.22
25.90
32.07
35.87
37.56
37.45
35.93
33.46
30.51
27.59
25.08
23.22
22.06
21.54
21.55
21.96
22.64
23.44
24.16
24.56
24.47
23.76
22.39
20.35
17.67
14.42
10.72
6.74
2.66
-1.36
-5.30
-9.18
-13.06
-16.94
-20.71
-24.24
-27.39
-30.24
-32.99
-35.97
-39.56
-44.07
-49.52
-55.58
-61.49
-66.11
-68.20
-66.71
-61.13
-51.67
-39.18
-24.97
-10.39
3.34
15.38
25.24
32.71
37.81
40.70
41.71
41.23
39.73
37.65
35.38
33.20
31.29
29.77
28.69
28.10
28.04
28.48
29.33
30.36
31.24
31.59
31.11
29.63
27.17
23.93
20.27
16.56
13.11
10.02
7.12
4.05
0.39
-4.09
-9.34
-15.00
-20.63
-25.82
-30.44
-34.56
-38.45
-42.43
-46.79
-51.57
-56.53
-60.99
-63.95
-64.24
-60.91
-53.58
-42.60
-28.99
-14.08
0.75
14.37
25.99
35.06
41.29
44.58
45.13
43.45
40.26
36.40
32.61
29.39
27.00
25.44
24.65
24.52
24.96
25.84
26.90
27.79
28.15
27.73
26.47
24.53
22.08
19.28
16.10
12.45
8.28
3.61
-1.33
-6.26
-10.92
-15.21
-19.14
-22.83
-26.47
-30.23
-34.25
-38.67
-43.50
-48.58
-53.42
-57.19
-58.84
-57.36
-52.12
-43.13
-31.13
-17.39
-3.39
9.58
20.65
29.43
35.81
39.86
41.63
41.21
38.82
34.89
30.09
25.21
20.97
17.85
15.98
15.17
15.04
15.19
15.28
15.16
14.84
14.36
13.75
12.92
11.68
9.76
6.95
3.20
-1.36
-6.40
-11.55
-16.46
-20.99
-25.13
-29.06
-33.07
-37.54
-42.79
-48.93
-55.68
-62.26
-67.39
-69.61
-67.71
-61.13
-50.22
-36.09
-20.38
-4.70
9.67
21.91
31.64
38.72
43.18
45.19
45.08
43.38
40.70
37.64
34.68
32.09
29.99
28.38
27.22
26.41
25.81
25.27
24.67
23.97
23.21
22.43
21.52
20.23
18.19
15.11
10.93
5.87
0.36
-5.14
-10.32
-15.05
-19.35
-23.34
-27.19
-31.16
-35.56
-40.75
-46.90
-53.80
-60.71
-66.43
-69.51
-68.66
-63.12
-53.00
-39.22
-23.31
-6.99
8.19
21.18
31.47
38.98
43.90
46.52
47.19
46.32
44.37
41.83
39.08
36.40
33.91
31.68
29.71
28.10
26.95
26.36
26.35
26.80
27.42
27.80
27.52
26.25
23.86
20.51
16.52
12.28
8.06
3.90
-0.26
-4.55
-8.99
-13.48
-17.86
-22.04
-26.01
-29.92
-34.02
-38.59
-43.80
-49.64
-55.77
-61.46
-65.63
-67.10
-64.85
-58.39
-47.91
-34.32
-18.98
-3.43
10.98
23.26
32.86
39.65
43.75
45.45
45.11
43.18
40.14
36.51
32.82
29.51
26.86
25.01
23.97
23.67
24.06
25.02
26.36
27.74
28.72
28.88
27.92
25.80
22.70
18.97
14.96
10.95
7.06
3.33
-0.34
-4.02
-7.79
-11.71
-15.74
-19.78
-23.72
-27.50
-31.27
-35.32
-40.03
-45.62
-51.93
-58.25
-63.43
-66.13
-65.21
-60.10
-50.95
-38.59
-24.33
-9.65
4.16
16.15
25.78
32.91
37.61
40.08
40.53
39.22
36.50
32.83
28.72
24.75
21.38
18.95
17.59
17.27
17.79
18.82
19.97
20.88
21.28
21.06
20.22
18.86
17.07
14.84
12.09
8.70
4.62
-0.06
-5.06
-10.01
-14.57
-18.51
-21.87
-24.93
-28.08
-31.75
-36.22
-41.52
-47.33
-52.96
-57.42
-59.56
-58.34
-53.18
-44.10
-31.86
-17.71
-3.12
10.56
22.30
31.52
38.01
41.87
43.29
42.62
40.23
36.59
32.30
27.97
24.19
21.36
19.61
18.81
18.63
18.76
18.93
19.04
19.01
18.75
18.11
16.91
15.03
12.46
9.28
5.56
1.37
-3.25
-8.22
-13.33
-18.32
-22.94
-27.07
-30.76
-34.34
-38.21
-42.80
-48.30
-54.54
-60.90
-66.29
-69.38
-68.95
-64.22
-55.11
-42.32
-27.16
-11.25
3.89
17.04
27.54
35.18
40.16
42.82
43.56
42.75
40.70
37.78
34.41
31.09
28.29
26.35
25.38
25.25
25.67
26.28
26.74
26.75
26.13
24.85
23.01
20.74
18.19
15.39
12.27
8.72
4.71
0.33
-4.26
-8.87
-13.41
-17.85
-22.24
-26.64
-31.14
-35.90
-41.15
-46.97
-53.13
-58.83
-62.78
-63.54
-60.03
-52.00
-40.11
-25.76
-10.61
3.90
16.74
27.36
35.46
40.95
43.88
44.41
42.94
40.07
36.49
32.88
29.74
27.39
25.89
25.14
24.92
25.03
25.28
25.53
25.63
25.48
24.95
23.91
22.28
19.99
17.04
13.45
9.36
4.93
0.42
-3.95
-8.07
-11.95
-15.69
-19.48
-23.43
-27.68
-32.29
-37.36
-42.91
-48.71
-54.18
-58.35
-60.06
-58.30
-52.58
-43.10
-30.80
-16.99
-3.11
9.65
20.47
28.91
34.83
38.28
39.48
38.70
36.37
32.96
29.04
25.16
21.83
19.36
17.90
17.40
17.63
18.31
19.11
19.76
20.05
19.86
19.08
17.72
15.76
13.21
10.06
6.37
2.26
-2.06
-6.34
-10.32
-13.91
-17.17
-20.37
-23.80
-27.75
-32.39
-37.70
-43.49
-49.34
-54.58
-58.28
-59.37
-56.92
-50.43
-40.06
-26.70
-11.79
3.09
16.54
27.65
35.99
41.49
44.22
44.38
42.31
38.59
34.05
29.59
25.99
23.66
22.63
22.64
23.28
24.13
24.81
25.07
24.74
23.75
22.20
20.28
18.14
15.87
13.40
10.61
7.38
3.62
-0.69
-5.50
-10.67
-15.95
-20.97
-25.34
-28.86
-31.62
-34.11
-37.07
-41.17
-46.83
-53.90
-61.56
-68.42
-72.81
-73.19
-68.63
-59.10
-45.55
-29.57
-12.99
2.61
16.10
26.89
34.83
40.05
42.87
43.75
43.26
41.95
40.26
38.46
36.67
34.94
33.32
31.90
30.82
30.17
29.97
30.14
30.50
30.78
30.66
29.81
28.01
25.22
21.57
17.42
13.14
9.04
5.21
1.55
-2.19
-6.17
-10.42
-14.78
-18.96
-22.75
-26.13
-29.27
-32.56
-36.42
-41.19
-46.89
-53.21
-59.35
-64.24
-66.64
-65.53
-60.33
-51.12
-38.61
-24.07
-8.93
5.50
18.23
28.71
36.74
42.35
45.60
46.63
45.68
43.19
39.83
36.37
33.51
31.65
30.84
30.78
31.11
31.50
31.83
32.10
32.37
32.54
32.42
31.69
30.06
27.41
23.87
19.79
15.58
11.62
8.10
4.99
1.99
-1.27
-5.14
-9.75
-14.88
-20.06
-24.66
-28.26
-30.78
-32.57
-34.30
-36.69
-40.30
-45.35
-51.63
-58.43
-64.60
-68.75
-69.44
-65.70
-57.27
-44.77
-29.57
-13.38
2.15
15.71
26.49
34.12
38.69
40.56
40.32
38.66
36.20
33.44
30.75
28.33
26.31
24.70
23.45
22.51
21.90
21.70
22.04
22.91
24.07
25.07
25.39
24.60
22.58
19.47
15.55
11.21
6.76
2.48
-1.43
-4.92
-8.08
-11.12
-14.32
-17.84
-21.66
-25.59
-29.46
-33.25
-37.19
-41.64
-46.79
-52.40
-57.64
-61.26
-61.87
-58.53
-50.96
-39.74
-26.09
-11.49
2.67
15.39
26.07
34.46
40.42
43.93
45.01
43.85
40.89
36.76
32.22
27.96
24.50
22.06
20.68
20.21
20.46
21.24
22.34
23.49
24.38
24.65
24.00
22.29
19.55
16.08
12.27
8.47
4.86
1.39
-2.17
-6.09
-10.51
-15.41
-20.53
-25.55
-30.14
-34.10
-37.44
-40.41
-43.48
-47.25
-52.16
-58.25
-64.96
-71.05
-74.98
-75.20
-70.75
-61.46
-48.05
-31.90
-14.67
2.02
16.87
29.06
38.17
44.17
47.31
48.03
46.91
44.56
41.59
38.51
35.70
33.35
31.57
30.35
29.65
29.40
29.50
29.83
30.25
30.57
30.61
30.17
29.06
27.15
24.42
20.97
17.06
12.94
8.78
4.57
0.16
-4.62
-9.84
-15.28
-20.57
-25.28
-29.16
-32.27
-35.03
-38.07
-42.01
-47.25
-53.77
-61.02
-67.99
-73.34
-75.68
-73.91
-67.52
-56.74
-42.55
-26.42
-9.97
5.40
18.73
29.52
37.69
43.29
46.50
47.52
46.62
44.21
40.90
37.36
34.23
31.96
30.71
30.37
30.67
31.27
31.93
32.49
32.87
33.01
32.80
32.07
30.67
28.48
25.57
22.14
18.50
14.90
11.44
8.00
4.37
0.34
-4.16
-8.99
-13.86
-18.48
-22.61
-26.22
-29.40
-32.38
-35.48
-39.07
-43.56
-49.16
-55.71
-62.52
-68.33
-71.58
-70.87
-65.42
-55.32
-41.52
-25.56
-9.12
6.34
19.78
30.61
38.60
43.75
46.26
46.45
44.81
41.95
38.52
35.09
32.07
29.67
27.88
26.59
25.72
25.24
25.20
25.63
26.42
27.34
28.03
28.15
27.44
25.82
23.32
20.11
16.44
12.53
8.58
4.75
1.07
-2.50
-6.03
-9.60
-13.23
-16.82
-20.28
-23.51
-26.55
-29.56
-32.81
-36.60
-41.16
-46.53
-52.38
-58.02
-62.37
-64.22
-62.49
-56.59
-46.66
-33.56
-18.69
-3.60
10.34
22.24
31.64
38.37
42.47
44.06
43.35
40.74
36.83
32.31
27.84
23.93
20.89
18.88
17.93
18.01
19.01
20.65
22.51
24.06
24.82
24.49
23.03
20.59
17.51
14.12
10.71
7.41
4.24
1.10
-2.15
-5.69
-9.60
-13.85
-18.28
-22.62
-26.63
-30.16
-33.28
-36.30
-39.68
-43.89
-49.12
-55.16
-61.19
-65.98
-68.13
-66.45
-60.34
-49.92
-36.07
-20.21
-4.00
11.00
23.63
33.22
39.63
43.12
44.17
43.35
41.21
38.27
35.02
31.84
29.02
26.71
24.90
23.52
22.54
21.99
21.94
22.40
23.17
23.92
24.19
23.60
21.94
19.25
15.82
11.97
8.04
4.16
0.33
-3.54
-7.58
-11.76
-15.97
-20.01
-23.69
-26.99
-30.04
-33.13
-36.63
-40.89
-46.11
-52.21
-58.67
-64.46
-68.19
-68.45
-64.30
-55.57
-43.06
-28.23
-12.81
1.72
14.38
24.72
32.66
38.24
41.57
42.76
42.08
39.95
36.87
33.42
30.05
27.10
24.81
23.27
22.49
22.41
22.85
23.61
24.41
24.97
25.05
24.43
23.02
20.78
17.80
14.18
10.08
5.68
1.13
-3.40
-7.79
-11.95
-15.84
-19.47
-22.96
-26.49
-30.29
-34.60
-39.54
-45.10
-51.03
-56.81
-61.66
-64.63
-64.77
-61.36
-54.09
-43.30
-29.90
-15.24
-0.79
12.23
23.04
31.33
37.15
40.67
42.05
41.45
39.08
35.36
30.93
26.52
22.80
20.27
19.11
19.21
20.22
21.67
23.05
23.93
24.01
23.21
21.62
19.46
16.91
14.05
10.87
7.27
3.23
-1.20
-5.89
-10.64
-15.30
-19.79
-24.11
-28.33
-32.61
-37.10
-41.94
-47.12
-52.39
-57.10
-60.27
-60.77
-57.64
-50.43
-39.44
-25.66
-10.54
4.39
17.85
29.00
37.42
43.07
46.03
46.54
44.96
41.81
37.69
33.30
29.26
26.04
23.87
22.80
22.66
23.16
23.94
24.62
24.84
24.35
23.05
21.02
18.40
15.41
12.17
8.69
4.89
0.67
-3.97
-8.93
-14.00
-18.96
-23.66
-28.06
-32.23
-36.37
-40.73
-45.64
-51.30
-57.56
-63.76
-68.70
-70.89
-69.00
-62.31
-51.01
-36.17
-19.36
-2.30
13.53
27.06
37.65
45.03
49.27
50.73
49.97
47.73
44.76
41.73
39.16
37.34
36.28
35.81
35.62
35.46
35.18
34.79
34.34
33.88
33.27
32.26
30.58
28.07
24.77
20.94
16.88
12.84
8.88
4.85
0.52
-4.27
-9.46
-14.76
-19.70
-23.89
-27.17
-29.77
-32.24
-35.32
-39.62
-45.41
-52.39
-59.70
-66.03
-69.91
-69.97
-65.36
-55.98
-42.59
-26.62
-9.82
6.17
20.10
31.28
39.50
44.92
47.81
48.60
47.75
45.80
43.28
40.69
38.30
36.24
34.45
32.91
31.60
30.62
30.07
30.03
30.45
31.10
31.59
31.42
30.17
27.66
23.99
19.53
14.80
10.30
6.29
2.82
-0.31
-3.43
-6.83
-10.68
-14.94
-19.38
-23.73
-27.76
-31.41
-34.86
-38.50
-42.75
-47.83
-53.59
-59.35
-63.98
-66.19
-64.85
-59.31
-49.66
-36.70
-21.79
-6.46
7.95
20.42
30.36
37.53
41.85
43.41
42.44
39.44
35.11
30.31
25.89
22.48
20.41
19.63
19.84
20.63
21.58
22.37
22.80
22.71
22.04
20.75
18.87
16.49
13.73
10.71
7.50
4.08
0.42
-3.53
-7.70
-11.97
-16.13
-20.01
-23.53
-26.78
-29.99
-33.51
-37.68
-42.69
-48.34
-53.97
-58.42
-60.36
-58.66
-52.75
-42.86
-29.98
-15.50
-0.89
12.60
24.15
33.28
39.73
43.45
44.48
43.05
39.66
35.08
30.18
25.81
22.58
20.73
20.07
20.23
20.76
21.35
21.82
22.08
22.06
21.60
20.54
18.82
16.48
13.69
10.55
7.11
3.24
-1.19
-6.22
-11.70
-17.27
-22.51
-27.08
-30.88
-34.08
-37.09
-40.46
-44.72
-50.17
-56.70
-63.68
-69.94
-74.02
-74.48
-70.33
-61.31
-47.99
-31.74
-14.37
2.32
16.87
28.45
36.89
42.45
45.58
46.74
46.29
44.63
42.21
39.56
37.19
35.40
34.17
33.28
32.44
31.56
30.74
30.26
30.30
30.82
31.50
31.80
31.15
29.19
25.89
21.58
16.77
12.01
7.61
3.60
-0.20
-4.02
-7.95
-11.95
-15.88
-19.61
-23.12
-26.50
-29.91
-33.53
-37.52
-42.06
-47.34
-53.34
-59.71
-65.66
-69.96
-71.24
-68.43
-61.08
-49.53
-34.90
-18.74
-2.67
11.94
24.24
33.85
40.77
45.18
47.31
47.44
45.92
43.25
40.01
36.82
34.18
32.43
31.67
31.84
32.69
33.87
34.99
35.67
35.70
35.06
33.85
32.23
30.26
27.90
25.10
21.91
18.48
15.01
11.66
8.41
5.13
1.61
-2.23
-6.36
-10.60
-14.75
-18.58
-21.98
-24.87
-27.34
-29.56
-31.83
-34.45
-37.73
-41.95
-47.23
-53.49
-60.30
-66.77
-71.64
-73.49
-71.18
-64.24
-53.02
-38.67
-22.76
-6.87
7.71
20.17
30.07
37.36
42.11
44.54
44.90
43.56
40.96
37.68
34.33
31.48
29.48
28.39
28.02
28.10
28.38
28.72
29.11
29.49
29.76
29.70
29.10
27.79
25.73
23.01
19.80
16.39
13.02
9.86
6.92
4.08
1.13
-2.12
-5.74
-9.63
-13.60
-17.43
-21.00
-24.16
-26.92
-29.34
-31.62
-34.10
-37.21
-41.33
-46.57
-52.67
-58.87
-63.99
-66.70
-65.79
-60.58
-51.10
-38.21
-23.31
-8.06
6.08
18.09
27.42
33.96
37.80
39.19
38.54
36.39
33.41
30.24
27.31
24.83
22.81
21.15
19.86
18.98
18.57
18.68
19.22
20.00
20.75
21.14
20.88
19.77
17.75
14.93
11.52
7.75
3.77
-0.38
-4.71
-9.18
-13.63
-17.85
-21.67
-25.08
-28.22
-31.36
-34.79
-38.78
-43.52
-49.09
-55.26
-61.37
-66.36
-68.93
-67.87
-62.52
-53.01
-40.25
-25.63
-10.63
3.54
16.06
26.56
34.86
40.88
44.56
45.87
44.95
42.17
38.21
33.87
29.95
26.98
25.15
24.38
24.43
25.03
25.98
27.05
28.00
28.50
28.23
26.98
24.78
21.84
18.51
15.17
12.05
9.16
6.33
3.26
-0.34
-4.60
-9.42
-14.48
-19.34
-23.65
-27.23
-30.16
-32.71
-35.35
-38.57
-42.81
-48.27
-54.67
-61.13
-66.27
-68.50
-66.53
-59.81
-48.70
-34.41
-18.60
-2.96
11.15
22.89
31.90
38.18
41.90
43.37
42.97
41.19
38.63
35.91
33.51
31.67
30.34
29.30
28.32
27.37
26.61
26.28
26.51
27.15
27.79
27.96
27.27
25.60
23.07
19.94
16.50
12.97
9.46
5.96
2.43
-1.23
-5.05
-9.01
-12.98
-16.80
-20.35
-23.64
-26.82
-30.21
-34.11
-38.76
-44.10
-49.77
-54.99
-58.76
-59.98
-57.80
-51.83
-42.37
-30.28
-16.83
-3.34
9.04
19.56
27.79
33.68
37.35
39.03
39.01
37.63
35.27
32.31
29.19
26.26
23.84
22.12
21.22
21.15
21.79
22.88
24.04
24.82
24.84
23.91
22.07
19.53
16.57
13.44
10.28
7.18
4.22
1.40
-1.33
-4.08
-7.05
-10.38
-14.07
-17.96
-21.88
-25.68
-29.43
-33.30
-37.50
-42.03
-46.50
-50.13
-51.92
-50.89
-46.45
-38.64
-28.06
-15.83
-3.24
8.52
18.56
26.37
31.74
34.75
35.63
34.69
32.30
28.89
24.91
20.88
17.32
14.72
13.37
13.33
14.31
15.82
17.28
18.22
18.38
17.71
16.30
14.30
11.89
9.23
6.48
3.74
1.02
-1.83
-4.99
-8.60
-12.64
-16.90
-21.04
-24.77
-28.00
-30.87
-33.73
-37.00
-41.00
-45.83
-51.18
-56.33
-60.22
-61.63
-59.55
-53.46
-43.59
-30.90
-16.81
-2.86
9.65
19.92
27.62
32.81
35.73
36.64
35.85
33.69
30.66
27.37
24.46
22.42
21.39
21.19
21.43
21.72
21.86
21.83
21.77
21.82
21.99
22.18
22.18
21.70
20.49
18.38
15.38
11.68
7.64
3.61
-0.15
-3.61
-6.88
-10.13
-13.45
-16.80
-20.09
-23.24
-26.28
-29.32
-32.49
-35.93
-39.81
-44.30
-49.55
-55.48
-61.57
-66.83
-69.94
-69.64
-65.19
-56.60
-44.69
-30.80
-16.41
-2.79
9.21
19.16
26.95
32.60
36.21
37.94
38.04
36.92
35.10
33.13
31.42
30.20
29.49
29.23
29.34
29.83
30.72
31.96
33.34
34.48
34.98
34.53
33.08
30.82
28.13
25.40
22.90
20.65
18.45
16.05
13.24
9.99
6.44
2.78
-0.90
-4.60
-8.37
-12.16
-15.79
-19.03
-21.73
-23.96
-26.04
-28.36
-31.28
-34.99
-39.59
-45.06
-51.29
-57.86
-63.96
-68.43
-69.98
-67.57
-60.88
-50.34
-37.07
-22.48
-7.93
5.54
17.25
26.90
34.43
39.87
43.28
44.75
44.47
42.75
40.07
37.01
34.18
32.06
30.83
30.50
30.90
31.82
33.00
34.24
35.28
35.87
35.78
34.88
33.17
30.76
27.86
24.72
21.58
18.58
15.73
12.95
10.09
7.03
3.69
0.11
-3.65
-7.46
-11.22
-14.79
-18.02
-20.80
-23.14
-25.19
-27.31
-29.91
-33.37
-37.90
-43.42
-49.49
-55.35
-59.91
-61.97
-60.54
-55.13
-45.98
-34.05
-20.71
-7.40
4.76
15.12
23.41
29.62
33.82
36.12
36.68
35.74
33.67
30.87
27.81
24.90
22.51
20.86
20.04
20.01
20.60
21.64
22.90
24.12
24.99
25.12
24.24
22.22
19.19
15.51
11.68
8.10
4.97
2.25
-0.35
-3.14
-6.40
-10.18
-14.34
-18.59
-22.68
-26.46
-30.05
-33.74
-37.87
-42.63
-47.89
-53.10
-57.35
-59.51
-58.55
-53.81
-45.30
-33.71
-20.29
-6.45
6.57
17.98
27.38
34.67
39.77
42.66
43.38
42.18
39.55
36.12
32.50
29.21
26.54
24.64
23.54
23.16
23.38
24.00
24.77
25.44
25.76
25.51
24.47
22.55
19.83
16.61
13.25
10.08
7.17
4.32
1.17
-2.60
-7.10
-12.15
-17.39
-22.37
-26.72
-30.28
-33.11
-35.55
-38.16
-41.57
-46.19
-51.98
-58.29
-63.87
-67.22
-67.00
-62.39
-53.40
-40.80
-25.95
-10.44
4.24
16.96
27.04
34.28
38.83
41.05
41.42
40.47
38.75
36.72
34.70
32.86
31.18
29.58
28.06
26.76
25.89
25.68
26.16
27.16
28.24
28.88
28.64
27.26
24.72
21.29
17.37
13.36
9.55
6.01
2.58
-0.99
-4.90
-9.14
-13.52
-17.72
-21.46
-24.69
-27.61
-30.60
-34.08
-38.39
-43.58
-49.37
-55.10
-59.83
-62.52
-62.21
-58.31
-50.78
-40.13
-27.33
-13.60
-0.13
12.17
22.65
30.99
37.08
40.94
42.68
42.55
40.90
38.20
35.00
31.81
29.06
26.95
25.50
24.57
24.00
23.70
23.63
23.79
24.10
24.36
24.23
23.41
21.68
19.07
15.81
12.19
8.48
4.82
1.20
-2.46
-6.24
-10.13
-13.99
-17.62
-20.85
-23.68
-26.41
-29.57
-33.69
-39.00
-45.28
-51.74
-57.27
-60.70
-61.09
-57.89
-51.02
-40.90
-28.46
-14.93
-1.70
10.05
19.58
26.69
31.58
34.61
36.04
36.02
34.67
32.24
29.16
26.00
23.26
21.30
20.18
19.78
19.86
20.16
20.46
20.62
20.53
20.17
19.42
18.18
16.28
13.67
10.41
6.69
2.79
-1.08
-4.81
-8.44
-12.03
-15.61
-19.15
-22.57
-25.83
-29.03
-32.44
-36.36
-40.98
-46.16
-51.24
-55.18
-56.71
-54.78
-48.90
-39.38
-27.20
-13.73
-0.34
11.89
22.25
30.34
35.99
39.13
39.91
38.63
35.79
31.97
27.77
23.75
20.33
17.85
16.46
16.10
16.51
17.28
18.00
18.36
18.15
17.35
16.00
14.17
11.89
9.20
6.12
2.64
-1.17
-5.22
-9.39
-13.57
-17.69
-21.75
-25.82
-29.99
-34.38
-39.13
-44.37
-50.14
-56.22
-62.00
-66.43
-68.28
-66.49
-60.53
-50.62
-37.65
-22.93
-7.86
6.32
18.74
28.80
36.29
41.21
43.80
44.37
43.31
41.04
38.05
34.82
31.87
29.57
28.09
27.38
27.28
27.57
28.11
28.71
29.19
29.23
28.53
26.91
24.44
21.33
17.90
14.36
10.76
7.03
3.06
-1.19
-5.69
-10.31
-14.89
-19.28
-23.40
-27.28
-31.12
-35.29
-40.13
-45.85
-52.21
-58.51
-63.58
-66.07
-64.83
-59.24
-49.43
-36.27
-21.16
-5.68
8.78
21.25
31.27
38.73
43.71
46.34
46.84
45.53
42.92
39.67
36.43
33.73
31.81
30.67
30.15
30.03
30.16
30.46
30.86
31.24
31.39
31.00
29.79
27.63
24.57
20.91
17.03
13.24
9.62
6.04
2.28
-1.86
-6.35
-11.03
-15.62
-19.88
-23.70
-27.12
-30.32
-33.64
-37.49
-42.25
-48.02
-54.50
-60.77
-65.53
-67.33
-65.04
-58.22
-47.23
-33.17
-17.57
-2.07
11.95
23.62
32.56
38.82
42.67
44.42
44.40
42.95
40.50
37.59
34.70
32.21
30.25
28.80
27.75
27.06
26.76
26.90
27.43
28.18
28.83
29.01
28.34
26.59
23.70
19.89
15.55
11.22
7.29
3.89
0.86
-2.17
-5.54
-9.41
-13.68
-18.16
-22.59
-26.83
-30.86
-34.78
-38.76
-43.03
-47.73
-52.77
-57.74
-61.82
-63.97
-63.14
-58.63
-50.30
-38.64
-24.64
-9.59
5.15
18.36
29.12
36.88
41.51
43.14
42.18
39.22
34.98
30.25
25.82
22.27
19.93
18.83
18.75
19.37
20.39
21.51
22.44
22.90
22.66
21.59
19.77
17.41
14.77
12.04
9.28
6.39
3.23
-0.34
-4.39
-8.85
-13.54
-18.20
-22.51
-26.26
-29.47
-32.37
-35.38
-38.98
-43.46
-48.85
-54.68
-59.99
-63.47
-63.75
-59.80
-51.30
-38.79
-23.56
-7.29
8.38
22.15
33.17
40.97
45.48
46.93
45.83
42.98
39.25
35.44
32.10
29.48
27.59
26.32
25.50
24.97
24.67
24.55
24.62
24.89
25.23
25.37
24.94
23.57
21.10
17.66
13.57
9.19
4.75
0.32
-4.17
-8.76
-13.46
-18.14
-22.63
-26.74
-30.33
-33.41
-36.23
-39.26
-43.10
-48.20
-54.71
-62.16
-69.54
-75.45
-78.46
-77.43
-71.79
-61.69
-48.00
-32.10
-15.57
0.16
14.02
25.45
34.27
40.54
44.39
46.03
45.78
44.12
41.60
38.80
36.18
34.01
32.44
31.50
31.16
31.38
32.01
32.82
33.56
33.94
33.69
32.59
30.51
27.49
23.70
19.49
15.25
11.30
7.77
4.56
1.41
-1.97
-5.84
-10.30
-15.23
-20.33
-25.21
-29.54
-33.27
-36.60
-40.06
-44.21
-49.43
-55.61
-62.07
-67.62
-70.79
-70.26
-65.19
-55.52
-42.00
-26.03
-9.29
6.68
20.74
32.23
40.82
46.39
48.99
48.91
46.70
43.24
39.50
36.31
34.10
32.90
32.43
32.35
32.39
32.42
32.40
32.35
32.24
32.05
31.66
30.89
29.56
27.48
24.61
21.08
17.08
12.85
8.54
4.19
-0.22
-4.66
-9.02
-13.13
-16.86
-20.18
-23.19
-26.10
-29.22
-32.86
-37.33
-42.77
-49.06
-55.59
-61.38
-65.13
-65.61
-62.00
-54.15
-42.62
-28.59
-13.52
1.14
14.24
25.06
33.28
38.87
41.99
42.87
41.83
39.30
35.83
31.98
28.28
25.13
22.76
21.26
20.65
20.88
21.75
22.97
24.10
24.68
24.37
23.05
20.83
17.93
14.64
11.16
7.65
4.15
0.64
-2.95
-6.63
-10.36
-14.05
-17.56
-20.84
-23.97
-27.20
-30.83
-35.15
-40.22
-45.79
-51.24
-55.66
-57.95
-57.10
-52.45
-43.91
-32.06
-18.09
-3.47
10.40
22.40
31.89
38.62
42.66
44.24
43.71
41.50
38.11
34.12
30.08
26.49
23.71
21.93
21.11
21.11
21.64
22.41
23.11
23.44
23.18
22.14
20.29
17.72
14.66
11.33
7.89
4.32
0.54
-3.57
-7.98
-12.55
-17.06
-21.30
-25.16
-28.71
-32.13
-35.72
-39.79
-44.61
-50.22
-56.31
-62.11
-66.52
-68.28
-66.37
-60.29
-50.26
-37.12
-22.15
-6.80
7.62
20.09
29.98
37.06
41.42
43.36
43.30
41.75
39.24
36.30
33.49
31.21
29.70
28.89
28.55
28.37
28.12
27.74
27.29
26.85
26.37
25.68
24.58
22.86
20.53
17.70
14.59
11.37
8.08
4.64
0.91
-3.22
-7.74
-12.41
-16.91
-20.94
-24.34
-27.25
-30.06
-33.31
-37.47
-42.74
-48.88
-55.22
-60.67
-63.96
-63.88
-59.68
-51.26
-39.27
-25.03
-10.13
3.92
16.02
25.67
32.79
37.58
40.30
41.21
40.58
38.73
36.10
33.18
30.41
28.08
26.32
25.12
24.40
24.09
24.16
24.56
25.18
25.77
26.00
25.56
24.21
21.98
19.05
15.74
12.35
9.00
5.65
2.11
-1.78
-6.03
-10.47
-14.75
-18.57
-21.77
-24.42
-26.80
-29.33
-32.42
-36.38
-41.27
-46.82
-52.36
-56.89
-59.25
-58.43
-53.87
-45.69
-34.63
-21.89
-8.77
3.62
14.47
23.28
29.74
33.76
35.39
34.89
32.74
29.52
25.84
22.24
19.10
16.68
15.15
14.54
14.77
15.61
16.73
17.74
18.32
18.25
17.47
16.06
14.11
11.76
9.09
6.12
2.87
-0.63
-4.32
-8.09
-11.81
-15.38
-18.76
-21.97
-25.12
-28.39
-32.01
-36.16
-40.86
-45.76
-50.14
-52.88
-52.86
-49.27
-41.97
-31.55
-19.19
-6.28
5.99
16.79
25.66
32.39
36.84
38.94
38.77
36.65
33.16
29.06
25.06
21.75
19.40
18.03
17.46
17.43
17.68
17.99
18.18
18.12
17.75
17.01
15.87
14.29
12.21
9.58
6.37
2.64
-1.54
-6.01
-10.62
-15.22
-19.63
-23.68
-27.32
-30.60
-33.82
-37.37
-41.70
-47.08
-53.32
-59.80
-65.42
-68.89
-68.99
-64.99
-56.77
-44.93
-30.64
-15.41
-0.72
12.27
22.84
30.75
36.09
39.13
40.25
39.87
38.44
36.41
34.15
31.93
29.91
28.16
26.78
25.87
25.50
25.65
26.14
26.67
26.91
26.62
25.65
23.96
21.62
18.71
15.37
11.77
8.04
4.27
0.43
-3.53
-7.67
-11.92
-16.13
-20.14
-23.89
-27.48
-31.21
-35.46
-40.54
-46.51
-52.95
-58.94
-63.21
-64.42
-61.60
-54.47
-43.54
-29.98
-15.28
-0.84
12.20
23.16
31.67
37.67
41.27
42.76
42.54
41.11
38.93
36.43
33.90
31.55
29.52
27.91
26.79
26.22
26.17
26.54
27.15
27.69
27.86
27.39
26.13
24.06
21.31
18.08
14.60
11.07
7.60
4.20
0.79
-2.79
-6.69
-10.92
-15.40
-19.88
-24.14
-28.07
-31.75
-35.46
-39.55
-44.25
-49.46
-54.71
-59.12
-61.59
-61.06
-56.80
-48.66
-37.20
-23.57
-9.21
4.42
16.26
25.73
32.64
37.05
39.14
39.13
37.40
34.47
30.95
27.46
24.45
22.10
20.43
19.36
18.85
18.84
19.28
19.99
20.68
21.01
20.70
19.64
17.92
15.73
13.28
10.65
7.79
4.53
0.77
-3.48
-7.94
-12.30
-16.25
-19.66
-22.63
-25.42
-28.35
-31.71
-35.74
-40.47
-45.71
-50.88
-55.01
-56.93
-55.58
-50.38
-41.40
-29.46
-15.79
-1.80
11.29
22.57
31.48
37.77
41.43
42.62
41.63
38.90
34.98
30.48
26.05
22.27
19.54
18.01
17.59
17.96
18.69
19.38
19.71
19.54
18.83
17.64
16.05
14.09
11.77
9.05
5.87
2.19
-2.00
-6.66
-11.65
-16.76
-21.74
-26.36
-30.50
-34.19
-37.70
-41.44
-45.88
-51.26
-57.43
-63.65
-68.68
-71.03
-69.39
-63.04
-52.09
-37.51
-20.91
-4.07
11.46
24.57
34.73
41.86
46.15
47.97
47.74
45.92
43.11
39.91
36.88
34.39
32.58
31.32
30.39
29.61
28.92
28.38
28.06
27.94
27.86
27.56
26.75
25.24
22.95
19.93
16.31
12.23
7.82
3.20
-1.54
-6.32
-10.98
-15.34
-19.29
-22.86
-26.18
-29.59
-33.48
-38.24
-44.07
-50.84
-58.00
-64.52
-69.01
-70.07
-66.71
-58.68
-46.59
-31.77
-15.86
-0.38
13.55
25.30
34.64
41.49
45.89
47.97
47.96
46.29
43.50
40.23
37.01
34.20
31.94
30.23
29.00
28.19
27.86
28.05
28.76
29.77
30.74
31.19
30.71
29.06
26.23
22.48
18.22
13.89
9.80
6.12
2.73
-0.63
-4.29
-8.43
-13.05
-17.88
-22.59
-26.87
-30.64
-34.05
-37.47
-41.38
-46.13
-51.81
-58.10
-64.12
-68.60
-70.16
-67.73
-60.83
-49.83
-35.79
-20.17
-4.44
10.17
22.77
32.83
40.04
44.33
45.84
44.96
42.29
38.56
34.52
30.84
27.97
26.12
25.25
25.15
25.50
26.05
26.60
27.02
27.18
26.91
26.05
24.54
22.45
19.96
17.30
14.64
11.96
9.08
5.79
1.91
-2.57
-7.50
-12.61
-17.49
-21.80
-25.32
-28.03
-30.19
-32.33
-35.08
-38.97
-44.23
-50.55
-57.02
-62.29
-64.79
-63.22
-56.92
-46.12
-31.89
-15.88
0.15
14.68
26.71
35.77
41.81
45.04
45.88
44.85
42.49
39.29
35.69
31.97
28.37
25.13
22.48
20.65
19.74
19.70
20.35
21.37
22.41
23.12
23.16
22.30
20.43
17.64
14.18
10.35
6.40
2.43
-1.60
-5.79
-10.19
-14.77
-19.40
-23.88
-28.06
-31.83
-35.27
-38.60
-42.24
-46.71
-52.32
-58.99
-66.00
-72.00
-75.29
-74.39
-68.48
-57.69
-43.13
-26.47
-9.56
6.09
19.52
30.29
38.36
43.88
47.06
48.08
47.26
45.00
41.81
38.25
34.82
31.83
29.42
27.61
26.38
25.74
25.71
26.23
27.12
28.01
28.43
27.97
26.39
23.71
20.22
16.33
12.41
8.69
5.18
1.71
-1.95
-6.00
-10.47
-15.19
-19.94
-24.42
-28.43
-31.93
-35.09
-38.29
-42.02
-46.73
-52.53
-58.95
-64.89
-68.81
-69.15
-64.82
-55.62
-42.29
-26.30
-9.43
6.67
20.73
31.97
40.06
45.02
47.15
46.97
45.07
42.14
38.79
35.52
32.64
30.29
28.48
27.16
26.23
25.65
25.41
25.48
25.79
26.26
26.66
26.73
26.15
24.68
22.23
18.91
15.07
11.10
7.28
3.65
0.01
-3.90
-8.19
-12.74
-17.23
-21.32
-24.86
-28.00
-31.08
-34.55
-38.76
-43.80
-49.53
-55.42
-60.63
-64.07
-64.61
-61.34
-53.93
-42.75
-28.88
-13.76
1.08
14.40
25.39
33.64
39.11
41.94
42.44
40.99
38.13
34.40
30.38
26.59
23.44
21.20
19.98
19.73
20.27
21.31
22.47
23.41
23.85
23.60
22.63
20.96
18.75
16.14
13.28
10.21
6.96
3.46
-0.32
-4.34
-8.49
-12.57
-16.42
-19.95
-23.20
-26.36
-29.68
-33.43
-37.75
-42.55
-47.42
-51.62
-54.14
-53.94
-50.26
-42.91
-32.36
-19.68
-6.22
6.70
18.09
27.37
34.30
38.84
41.05
41.06
39.13
35.69
31.37
26.86
22.84
19.79
17.97
17.34
17.68
18.64
19.84
20.96
21.73
21.96
21.48
20.17
18.02
15.14
11.77
8.20
4.64
1.14
-2.42
-6.23
-10.37
-14.76
-19.16
-23.27
-26.96
-30.29
-33.58
-37.24
-41.63
-46.82
-52.46
-57.70
-61.36
-62.17
-59.17
-52.05
-41.27
-27.91
-13.38
0.93
13.88
24.73
33.01
38.58
41.50
42.09
40.87
38.51
35.65
32.81
30.34
28.39
26.99
26.12
25.68
25.58
25.74
26.07
26.45
26.75
26.73
26.18
24.91
22.86
20.16
17.05
13.80
10.60
7.47
4.30
0.93
-2.74
-6.71
-10.83
-14.90
-18.69
-22.06
-24.99
-27.61
-30.24
-33.30
-37.17
-42.03
-47.62
-53.20
-57.61
-59.54
-57.91
-52.23
-42.77
-30.53
-16.93
-3.42
8.82
19.08
27.09
32.82
36.41
38.05
37.99
36.60
34.32
31.67
29.13
27.08
25.67
24.86
24.48
24.30
24.18
24.05
23.97
24.01
24.19
24.35
24.17
23.26
21.35
18.34
14.48
10.22
6.12
2.56
-0.33
-2.75
-5.07
-7.69
-10.79
-14.31
-18.01
-21.62
-24.94
-27.92
-30.63
-33.22
-35.91
-38.96
-42.57
-46.78
-51.25
-55.22
-57.63
-57.39
-53.76
-46.59
-36.38
-24.11
-10.99
1.79
13.22
22.54
29.31
33.43
35.07
34.66
32.78
30.01
26.98
24.17
21.99
20.61
20.02
20.00
20.24
20.48
20.59
20.56
20.43
20.21
19.81
19.13
18.03
16.48
14.52
12.22
9.66
6.93
4.04
0.97
-2.32
-5.83
-9.50
-13.17
-16.65
-19.76
-22.49
-24.93
-27.30
-29.86
-32.82
-36.33
-40.41
-44.93
-49.49
-53.42
-55.77
-55.61
-52.20
-45.36
-35.53
-23.68
-11.02
1.22
12.09
20.93
27.41
31.43
33.11
32.72
30.73
27.71
24.28
20.98
18.25
16.33
15.33
15.19
15.73
16.71
17.83
18.82
19.47
19.62
19.20
18.16
16.49
14.20
11.34
8.00
4.32
0.45
-3.50
-7.44
-11.30
-15.00
-18.44
-21.60
-24.54
-27.45
-30.63
-34.43
-39.10
-44.65
-50.75
-56.66
-61.30
-63.49
-62.20
-56.91
-47.79
-35.72
-21.99
-8.04
4.99
16.34
25.71
32.98
38.14
41.19
42.16
41.27
38.99
35.96
32.87
30.32
28.68
28.04
28.28
29.08
30.09
31.00
31.60
31.85
31.77
31.32
30.40
28.83
26.51
23.48
20.00
16.39
12.90
9.55
6.20
2.61
-1.41
-5.89
-10.69
-15.59
-20.24
-24.34
-27.71
-30.42
-32.80
-35.47
-39.08
-44.09
-50.48
-57.63
-64.40
-69.32
-70.99
-68.39
-61.24
-50.00
-35.78
-20.12
-4.56
9.62
21.57
30.90
37.56
41.75
43.80
44.13
43.22
41.51
39.40
37.23
35.25
33.65
32.54
31.95
31.80
31.93
32.17
32.41
32.56
32.61
32.48
32.00
30.91
28.97
26.06
22.29
17.96
13.49
9.25
5.43
2.00
-1.22
-4.47
-7.96
-11.71
-15.65
-19.59
-23.31
-26.74
-29.93
-33.10
-36.60
-40.80
-45.90
-51.87
-58.27
-64.27
-68.72
-70.44
-68.39
-62.08
-51.67
-38.04
-22.57
-6.85
7.70
20.10
29.87
36.99
41.67
44.14
44.63
43.36
40.71
37.28
33.78
30.89
28.99
28.11
28.00
28.31
28.78
29.33
29.97
30.68
31.25
31.33
30.52
28.57
25.52
21.65
17.45
13.37
9.69
6.43
3.38
0.19
-3.41
-7.52
-12.00
-16.54
-20.80
-24.60
-27.97
-31.13
-34.44
-38.26
-42.81
-48.06
-53.61
-58.70
-62.22
-62.98
-60.04
-53.02
-42.25
-28.72
-13.86
0.88
14.25
25.39
33.82
39.40
42.25
42.66
41.06
37.95
33.94
29.66
25.70
22.53
20.47
19.55
19.58
20.22
21.10
21.89
22.36
22.37
21.83
20.68
18.90
16.52
13.55
10.06
6.11
1.78
-2.81
-7.54
-12.26
-16.86
-21.26
-25.44
-29.44
-33.40
-37.57
-42.27
-47.77
-54.03
-60.58
-66.39
-70.09
-70.31
-66.15
-57.46
-44.92
-29.82
-13.74
1.86
15.83
27.47
36.40
42.57
46.11
47.35
46.70
44.64
41.69
38.33
35.01
32.09
29.85
28.42
27.78
27.81
28.27
28.86
29.29
29.30
28.72
27.45
25.49
22.90
19.72
16.03
11.90
7.41
2.65
-2.26
-7.17
-11.95
-16.48
-20.70
-24.64
-28.40
-32.22
-36.42
-41.28
-46.97
-53.28
-59.61
-64.87
-67.71
-66.85
-61.48
-51.54
-37.90
-22.07
-5.87
9.10
21.77
31.69
38.86
43.56
46.04
46.53
45.30
42.78
39.53
36.20
33.25
30.89
29.09
27.74
26.79
26.34
26.49
27.25
28.37
29.37
29.71
28.95
26.89
23.62
19.48
14.93
10.38
6.13
2.23
-1.46
-5.18
-9.10
-13.18
-17.24
-21.09
-24.71
-28.28
-32.13
-36.59
-41.82
-47.68
-53.77
-59.39
-63.62
-65.42
-63.83
-58.24
-48.68
-35.86
-21.10
-5.94
8.19
20.27
29.79
36.66
41.01
43.11
43.29
41.93
39.45
36.37
33.18
30.36
28.22
26.89
26.35
26.43
26.90
27.53
28.11
28.46
28.42
27.85
26.62
24.67
21.99
18.72
15.08
11.35
7.71
4.23
0.78
-2.82
-6.73
-10.94
-15.26
-19.41
-23.10
-26.23
-28.95
-31.59
-34.63
-38.51
-43.39
-49.08
-54.82
-59.48
-61.76
-60.56
-55.30
-46.13
-33.88
-19.89
-5.61
7.62
18.86
27.59
33.63
37.08
38.17
37.28
34.89
31.56
27.87
24.37
21.49
19.46
18.34
18.08
18.54
19.57
20.95
22.35
23.35
23.58
22.79
20.98
18.37
15.28
12.02
8.70
5.26
1.55
-2.54
-6.98
-11.57
-16.01
-20.04
-23.56
-26.67
-29.66
-32.99
-37.10
-42.22
-48.25
-54.59
-60.24
-63.92
-64.39
-60.82
-53.00
-41.45
-27.34
-12.19
2.46
15.35
25.71
33.28
38.19
40.83
41.67
41.14
39.64
37.54
35.15
32.79
30.67
28.92
27.59
26.65
26.08
25.91
26.15
26.71
27.35
27.68
27.25
25.72
22.99
19.22
14.81
10.20
5.74
1.55
-2.42
-6.34
-10.38
-14.56
-18.79
-22.85
-26.62
-30.08
-33.41
-36.95
-41.06
-46.03
-51.91
-58.46
-65.02
-70.54
-73.70
-73.22
-68.23
-58.65
-45.28
-29.63
-13.49
1.61
14.73
25.50
33.96
40.21
44.28
46.19
46.09
44.37
41.69
38.74
36.11
34.10
32.77
32.05
31.84
32.05
32.58
33.26
33.87
34.15
33.93
33.09
31.53
29.21
26.12
22.37
18.20
13.97
10.02
6.52
3.34
0.13
-3.48
-7.74
-12.56
-17.56
-22.26
-26.32
-29.67
-32.57
-35.48
-38.89
-43.16
-48.40
-54.42
-60.66
-66.21
-69.87
-70.38
-66.76
-58.66
-46.49
-31.47
-15.21
0.62
14.72
26.31
35.11
41.15
44.63
45.85
45.18
43.16
40.44
37.69
35.42
33.79
32.69
31.83
30.99
30.16
29.53
29.36
29.72
30.48
31.24
31.53
30.92
29.17
26.21
22.21
17.57
12.76
8.27
4.45
1.33
-1.36
-4.08
-7.17
-10.77
-14.74
-18.82
-22.78
-26.52
-30.09
-33.58
-37.13
-40.90
-45.05
-49.68
-54.68
-59.52
-63.28
-64.83
-63.07
-57.30
-47.52
-34.44
-19.36
-3.85
10.59
22.81
32.10
38.26
41.34
41.65
39.69
36.08
31.64
27.26
23.71
21.45
20.51
20.56
21.15
21.93
22.73
23.51
24.24
24.79
24.87
24.23
22.66
20.17
16.96
13.29
9.42
5.48
1.50
-2.59
-6.80
-11.09
-15.30
-19.23
-22.74
-25.88
-28.89
-32.21
-36.28
-41.37
-47.38
-53.73
-59.37
-62.99
-63.37
-59.71
-51.86
-40.41
-26.53
-11.64
2.90
16.01
27.00
35.49
41.37
44.67
45.61
44.58
42.16
39.00
35.70
32.69
30.17
28.17
26.69
25.72
25.32
25.51
26.17
27.04
27.76
27.96
27.32
25.67
23.03
19.53
15.47
11.18
6.95
2.95
-0.85
-4.62
-8.60
-12.92
-17.48
-22.03
-26.22
-29.86
-33.03
-36.09
-39.60
-44.04
-49.62
-56.12
-62.88
-68.78
-72.52
-72.83
-68.84
-60.32
-47.90
-32.89
-16.98
-1.76
11.61
22.61
31.22
37.59
41.92
44.30
44.85
43.85
41.68
38.86
35.89
33.14
30.85
29.19
28.24
28.04
28.52
29.55
30.82
31.95
32.50
32.04
30.28
27.17
22.98
18.26
13.68
9.76
6.71
4.31
2.01
-0.77
-4.46
-9.12
-14.45
-19.91
-24.96
-29.21
-32.57
-35.25
-37.74
-40.64
-44.40
-49.11
-54.42
-59.43
-62.88
-63.49
-60.30
-52.96
-41.84
-27.96
-12.77
2.27
15.89
27.23
35.87
41.73
44.97
45.92
45.00
42.75
39.77
36.67
33.94
31.86
30.45
29.57
29.01
28.63
28.43
28.46
28.73
29.15
29.47
29.32
28.38
26.50
23.72
20.29
16.48
12.55
8.63
4.73
0.81
-3.12
-7.00
-10.72
-14.20
-17.39
-20.35
-23.18
-25.99
-28.94
-32.23
-36.10
-40.73
-46.06
-51.67
-56.69
-60.00
-60.53
-57.55
-50.92
-41.14
-29.15
-16.14
-3.22
8.67
18.89
27.02
32.81
36.19
37.25
36.25
33.66
30.03
25.98
22.09
18.80
16.39
15.02
14.68
15.25
16.48
18.02
19.38
20.12
19.88
18.54
16.24
13.33
10.24
7.29
4.56
1.93
-0.87
-4.04
-7.65
-11.52
-15.42
-19.17
-22.75
-26.30
-30.07
-34.29
-39.05
-44.24
-49.49
-54.09
-57.11
-57.53
-54.57
-47.95
-38.02
-25.71
-12.28
0.99
13.06
23.21
31.04
36.38
39.26
39.86
38.59
35.96
32.58
29.01
25.66
22.80
20.60
19.13
18.40
18.41
19.00
19.95
20.90
21.48
21.37
20.42
18.58
15.99
12.84
9.33
5.63
1.88
-1.89
-5.71
-9.69
-13.89
-18.29
-22.76
-27.06
-31.01
-34.58
-37.97
-41.58
-45.83
-50.97
-56.82
-62.76
-67.71
-70.42
-69.70
-64.85
-55.81
-43.30
-28.65
-13.46
0.79
13.04
22.79
29.96
34.74
37.43
38.27
37.51
35.56
32.97
30.32
28.13
26.61
25.72
25.26
25.02
24.96
25.10
25.48
26.00
26.37
26.19
25.11
23.01
19.99
16.38
12.57
8.82
5.20
1.58
-2.27
-6.52
-11.14
-15.87
-20.37
-24.35
-27.75
-30.78
-33.91
-37.67
-42.50
-48.49
-55.28
-61.99
-67.27
-69.71
-68.15
-62.06
-51.71
-38.17
-22.90
-7.49
6.74
18.87
28.42
35.27
39.56
41.62
41.88
40.84
39.00
36.83
34.71
32.90
31.53
30.62
30.11
29.91
29.96
30.24
30.69
31.21
31.58
31.48
30.58
28.68
25.80
22.14
18.07
13.89
9.86
6.03
2.32
-1.41
-5.27
-9.27
-13.34
-17.33
-21.16
-24.82
-28.43
-32.23
-36.52
-41.54
-47.30
-53.45
-59.23
-63.54
-65.12
-62.94
-56.51
-46.09
-32.64
-17.63
-2.58
11.23
22.95
32.14
38.67
42.57
44.00
43.23
40.74
37.14
33.13
29.38
26.46
24.68
24.07
24.40
25.26
26.19
26.81
26.96
26.60
25.80
24.60
22.97
20.85
18.21
15.12
11.71
8.09
4.33
0.37
-3.83
-8.25
-12.73
-17.04
-20.96
-24.37
-27.39
-30.37
-33.85
-38.28
-43.85
-50.18
-56.30
-60.74
-61.96
-58.78
-50.84
-38.71
-23.75
-7.73
7.65
21.08
31.83
39.65
44.64
47.09
47.36
45.90
43.22
39.88
36.41
33.26
30.63
28.62
27.17
26.25
25.83
25.86
26.22
26.70
26.99
26.78
25.83
24.00
21.27
17.80
13.80
9.54
5.26
1.03
-3.20
-7.54
-12.06
-16.67
-21.13
-25.20
-28.74
-31.87
-34.90
-38.27
-42.40
-47.60
-53.95
-61.12
-68.36
-74.43
-77.81
-77.12
-71.56
-61.17
-46.88
-30.27
-13.13
2.98
16.97
28.32
36.91
42.90
46.56
48.14
47.91
46.24
43.58
40.49
37.52
35.08
33.34
32.24
31.64
31.40
31.49
31.90
32.56
33.23
33.49
32.83
30.92
27.66
23.35
18.51
13.75
9.55
6.06
3.12
0.29
-2.91
-6.79
-11.38
-16.41
-21.44
-26.03
-29.97
-33.28
-36.24
-39.33
-43.08
-47.87
-53.76
-60.29
-66.39
-70.58
-71.29
-67.39
-58.57
-45.50
-29.65
-12.88
3.10
17.08
28.44
37.04
43.01
46.54
47.83
47.15
44.93
41.74
38.33
35.38
33.36
32.39
32.23
32.50
32.84
33.06
33.15
33.15
32.99
32.49
31.32
29.27
26.32
22.71
18.80
14.95
11.33
7.88
4.36
0.49
-3.90
-8.77
-13.83
-18.61
-22.67
-25.80
-28.17
-30.32
-32.99
-36.85
-42.19
-48.81
-55.92
-62.31
-66.50
-67.13
-63.27
-54.76
-42.28
-27.24
-11.38
3.66
16.69
27.08
34.65
39.50
41.86
42.03
40.40
37.51
33.98
30.41
27.30
24.93
23.38
22.56
22.30
22.36
22.61
22.92
23.17
23.19
22.76
21.66
19.77
17.13
13.93
10.39
6.71
2.92
-0.92
-4.80
-8.58
-12.13
-15.36
-18.33
-21.27
-24.53
-28.48
-33.34
-39.11
-45.44
-51.60
-56.60
-59.28
-58.65
-54.13
-45.77
-34.25
-20.69
-6.44
7.22
19.30
29.16
36.54
41.44
44.03
44.56
43.30
40.64
37.07
33.18
29.58
26.77
24.97
24.11
23.98
24.29
24.82
25.40
25.85
25.91
25.29
23.78
21.31
18.05
14.30
10.42
6.66
3.09
-0.37
-3.91
-7.73
-11.89
-16.31
-20.79
-25.02
-28.77
-31.95
-34.73
-37.45
-40.58
-44.54
-49.57
-55.53
-61.83
-67.38
-70.83
-70.84
-66.54
-57.83
-45.44
-30.71
-15.20
-0.32
12.91
23.94
32.50
38.52
42.06
43.33
42.69
40.67
37.93
35.10
32.70
30.99
29.98
29.47
29.20
28.93
28.58
28.16
27.74
27.35
26.87
26.12
24.86
22.95
20.39
17.31
13.93
10.42
6.85
3.18
-0.74
-5.00
-9.57
-14.20
-18.56
-22.33
-25.38
-27.82
-30.00
-32.41
-35.58
-39.92
-45.58
-52.30
-59.30
-65.25
-68.60
-67.94
-62.53
-52.55
-39.12
-23.91
-8.73
5.02
16.49
25.42
31.91
36.24
38.72
39.59
39.11
37.57
35.32
32.75
30.27
28.15
26.51
25.30
24.40
23.80
23.59
23.92
24.79
25.92
26.75
26.68
25.30
22.57
18.87
14.75
10.72
7.05
3.71
0.49
-2.84
-6.43
-10.30
-14.31
-18.27
-21.99
-25.34
-28.35
-31.23
-34.29
-37.89
-42.29
-47.50
-53.14
-58.39
-62.07
-62.92
-59.98
-52.89
-42.11
-28.82
-14.54
-0.75
11.44
21.38
28.86
33.89
36.60
37.19
35.95
33.32
29.83
26.12
22.83
20.45
19.21
19.00
19.52
20.34
21.11
21.59
21.68
21.35
20.55
19.25
17.41
15.08
12.39
9.43
6.26
2.82
-0.95
-5.07
-9.39
-13.68
-17.67
-21.23
-24.35
-27.18
-30.06
-33.42
-37.67
-43.05
-49.35
-55.82
-61.23
-64.12
-63.24
-57.93
-48.31
-35.26
-20.18
-4.68
9.79
22.10
31.60
38.14
41.91
43.32
42.92
41.22
38.74
35.93
33.19
30.80
28.89
27.49
26.56
26.08
26.01
26.28
26.73
27.04
26.92
26.09
24.45
22.04
19.04
15.62
11.93
8.02
3.93
-0.36
-4.84
-9.45
-14.03
-18.36
-22.30
-25.81
-29.01
-32.21
-35.80
-40.17
-45.62
-52.19
-59.50
-66.68
-72.38
-75.08
-73.48
-67.00
-55.97
-41.60
-25.55
-9.51
5.22
17.86
28.13
36.00
41.65
45.26
47.07
47.36
46.44
44.61
42.22
39.58
36.98
34.66
32.79
31.52
30.97
31.18
32.05
33.29
34.41
34.83
34.09
31.92
28.46
24.08
19.36
14.76
10.59
6.85
3.34
-0.23
-4.08
-8.27
-12.68
-17.06
-21.22
-25.09
-28.78
-32.50
-36.41
-40.67
-45.38
-50.61
-56.26
-61.89
-66.58
-68.98
-67.73
-61.92
-51.56
-37.67
-21.88
-5.94
8.80
21.58
32.13
40.29
45.92
48.87
49.20
47.32
44.01
40.17
36.65
33.97
32.26
31.39
31.10
31.14
31.34
31.60
31.82
31.87
31.55
30.66
29.07
26.79
23.93
20.71
17.34
13.98
10.62
7.19
3.54
-0.44
-4.75
-9.25
-13.64
-17.61
-20.93
-23.63
-26.04
-28.64
-31.98
-36.41
-41.99
-48.42
-55.07
-61.05
-65.23
-66.44
-63.73
-56.67
-45.57
-31.51
-16.10
-1.02
12.37
23.26
31.37
36.74
39.62
40.27
39.04
36.37
32.82
29.01
25.53
22.81
21.06
20.25
20.20
20.62
21.23
21.81
22.21
22.31
21.93
20.94
19.24
16.82
13.83
10.45
6.85
3.13
-0.66
-4.52
-8.38
-12.18
-15.85
-19.39
-22.92
-26.57
-30.55
-35.02
-40.06
-45.59
-51.23
-56.26
-59.61
-60.15
-57.02
-49.93
-39.27
-26.08
-11.68
2.55
15.54
26.55
35.16
41.21
44.70
45.74
44.64
41.88
38.14
34.15
30.61
27.97
26.33
25.50
25.17
25.04
24.97
24.97
25.08
25.17
24.96
24.09
22.28
19.48
15.94
12.04
8.19
4.60
1.24
-2.11
-5.71
-9.72
-14.11
-18.70
-23.23
-27.48
-31.40
-35.08
-38.79
-42.83
-47.50
-52.88
-58.63
-63.96
-67.66
-68.40
-65.13
-57.45
-45.80
-31.35
-15.67
-0.31
13.52
25.07
34.01
40.28
43.96
45.31
44.67
42.57
39.63
36.48
33.71
31.68
30.47
29.92
29.66
29.40
28.95
28.38
27.82
27.39
26.97
26.28
25.01
23.00
20.31
17.20
13.95
10.67
7.27
3.57
-0.54
-4.99
-9.55
-13.90
-17.80
-21.16
-24.13
-27.01
-30.26
-34.35
-39.56
-45.79
-52.45
-58.44
-62.37
-62.94
-59.29
-51.29
-39.58
-25.41
-10.38
3.98
16.50
26.44
33.58
38.05
40.22
40.50
39.37
37.29
34.76
32.20
29.96
28.21
26.94
26.03
25.32
24.73
24.24
23.89
23.65
23.37
22.85
21.92
20.50
18.68
16.59
14.33
11.85
9.00
5.62
1.66
-2.75
-7.29
-11.64
-15.55
-18.99
-22.09
-25.09
-28.30
-31.99
-36.38
-41.49
-47.07
-52.53
-56.90
-59.04
-57.90
-52.89
-44.12
-32.40
-19.11
-5.75
6.31
16.20
23.56
28.47
31.22
32.17
31.60
29.78
26.99
23.59
20.08
16.95
14.59
13.19
12.74
13.05
13.84
14.85
15.80
16.46
16.62
16.12
14.89
12.94
10.35
7.26
3.85
0.33
-3.09
-6.22
-9.01
-11.51
-13.96
-16.59
-19.63
-23.21
-27.35
-32.04
-37.17
-42.43
-47.22
-50.70
-51.96
-50.22
-45.15
-36.95
-26.33
-14.33
-2.06
9.46
19.41
27.31
32.98
36.42
37.83
37.45
35.59
32.60
28.95
25.16
21.74
19.10
17.44
16.78
16.93
17.63
18.55
19.33
19.63
19.21
17.96
15.94
13.31
10.29
7.04
3.74
0.47
-2.69
-5.80
-8.93
-12.21
-15.73
-19.47
-23.35
-27.25
-31.13
-35.07
-39.19
-43.62
-48.31
-52.91
-56.72
-58.83
-58.29
-54.38
-46.89
-36.25
-23.48
-9.95
2.98
14.33
23.57
30.58
35.43
38.25
39.19
38.45
36.37
33.52
30.54
27.96
26.10
24.99
24.42
24.12
23.90
23.71
23.59
23.55
23.47
23.13
22.26
20.70
18.50
15.89
13.13
10.41
7.76
4.99
1.92
-1.56
-5.40
-9.40
-13.34
-17.03
-20.38
-23.42
-26.27
-29.21
-32.55
-36.63
-41.57
-47.11
-52.49
-56.60
-58.18
-56.26
-50.40
-40.86
-28.58
-14.92
-1.35
10.84
20.78
28.14
32.98
35.61
36.40
35.72
33.98
31.68
29.35
27.43
26.15
25.43
24.96
24.42
23.65
22.74
21.95
21.54
21.66
22.17
22.72
22.84
22.15
20.40
17.67
14.30
10.72
7.30
4.20
1.31
-1.56
-4.53
-7.62
-10.70
-13.64
-16.42
-19.08
-21.78
-24.67
-27.89
-31.57
-35.80
-40.55
-45.52
-50.11
-53.47
-54.64
-52.89
-47.86
-39.78
-29.34
-17.61
-5.70
5.36
14.86
22.43
27.92
31.38
32.92
32.70
31.02
28.32
25.14
22.06
19.50
17.66
16.58
16.15
16.23
16.70
17.41
18.19
18.78
18.93
18.40
17.09
15.05
12.46
9.55
6.51
3.48
0.44
-2.64
-5.85
-9.20
-12.65
-16.07
-19.32
-22.27
-24.90
-27.33
-29.77
-32.55
-35.97
-40.20
-45.10
-50.09
-54.21
-56.30
-55.28
-50.59
-42.36
-31.40
-19.00
-6.52
4.95
14.75
22.65
28.64
32.75
35.02
35.48
34.36
32.07
29.19
26.35
24.02
22.45
21.62
21.35
21.42
21.68
22.06
22.56
23.13
23.65
23.91
23.63
22.57
20.59
17.73
14.22
10.40
6.65
3.25
0.29
-2.33
-4.91
-7.81
-11.28
-15.35
-19.78
-24.12
-27.93
-30.96
-33.31
-35.39
-37.81
-41.14
-45.71
-51.50
-58.00
-64.29
-69.16
-71.32
-69.70
-63.82
-53.91
-40.91
-26.20
-11.27
2.63
14.61
24.18
31.18
35.71
38.04
38.60
37.90
36.44
34.63
32.80
31.23
30.08
29.37
28.96
28.67
28.33
27.96
27.75
27.98
28.73
29.79
30.62
30.61
29.35
26.73
23.03
18.75
14.37
10.24
6.53
3.24
0.20
-2.76
-5.84
-9.11
-12.57
-16.16
-19.80
-23.49
-27.24
-31.11
-35.15
-39.42
-44.02
-48.97
-54.11
-58.93
-62.51
-63.78
-61.76
-55.94
-46.46
-34.11
-20.04
-5.56
8.20
20.37
30.36
37.88
42.84
45.35
45.68
44.25
41.63
38.40
35.18
32.46
30.54
29.47
29.14
29.31
29.74
30.19
30.51
30.57
30.33
29.69
28.58
26.92
24.68
21.90
18.78
15.57
12.50
9.60
6.69
3.43
-0.42
-4.88
-9.61
-14.14
-18.07
-21.21
-23.73
-26.02
-28.50
-31.56
-35.45
-40.30
-46.02
-52.17
-57.92
-62.09
-63.45
-61.04
-54.52
-44.26
-31.29
-17.02
-2.90
9.87
20.50
28.64
34.31
37.72
39.17
38.97
37.43
34.92
31.83
28.58
25.56
23.07
21.31
20.36
20.24
20.87
22.03
23.42
24.66
25.39
25.33
24.31
22.30
19.44
15.96
12.17
8.38
4.74
1.27
-2.18
-5.78
-9.59
-13.50
-17.39
-21.19
-24.95
-28.90
-33.31
-38.34
-43.97
-49.89
-55.53
-60.02
-62.31
-61.39
-56.60
-47.89
-35.93
-21.92
-7.30
6.65
19.02
29.24
36.99
42.12
44.57
44.52
42.37
38.81
34.64
30.61
27.29
24.98
23.67
23.24
23.43
23.99
24.67
25.28
25.58
25.33
24.34
22.54
20.06
17.16
14.12
11.10
8.02
4.70
0.92
-3.32
-7.87
-12.41
-16.67
-20.58
-24.27
-27.99
-31.99
-36.49
-41.64
-47.43
-53.62
-59.63
-64.54
-67.18
-66.47
-61.71
-52.86
-40.60
-26.15
-10.91
3.75
16.81
27.57
35.70
41.12
44.02
44.79
43.95
42.05
39.61
37.03
34.58
32.44
30.73
29.54
28.85
28.56
28.50
28.46
28.28
27.85
27.09
25.93
24.28
22.07
19.30
16.04
12.44
8.59
4.53
0.26
-4.16
-8.63
-12.95
-17.01
-20.78
-24.40
-28.13
-32.23
-36.91
-42.26
-48.08
-53.80
-58.44
-60.76
-59.56
-54.10
-44.47
-31.58
-16.91
-2.10
11.53
23.09
32.16
38.63
42.61
44.28
44.00
42.29
39.73
36.89
34.23
32.01
30.32
29.08
28.17
27.48
27.02
26.80
26.87
27.13
27.30
27.05
26.05
24.18
21.56
18.44
15.10
11.75
8.41
5.00
1.45
-2.30
-6.16
-10.00
-13.66
-17.06
-20.28
-23.56
-27.29
-31.80
-37.23
-43.33
-49.44
-54.58
-57.73
-57.99
-54.83
-48.20
-38.51
-26.68
-13.86
-1.27
10.06
19.47
26.66
31.65
34.58
35.65
35.06
33.14
30.31
27.09
23.97
21.35
19.46
18.33
17.93
18.08
18.57
19.18
19.66
19.81
19.48
18.54
16.85
14.36
11.12
7.35
3.40
-0.38
-3.80
-6.81
-9.52
-12.07
-14.57
-17.13
-19.86
-22.95
-26.60
-30.96
-35.98
-41.35
-46.45
-50.43
-52.35
-51.32
-46.84
-38.99
-28.48
-16.47
-4.26
7.12
17.06
25.32
31.80
36.37
38.88
39.28
37.76
34.71
30.70
26.30
22.06
18.45
15.91
14.68
14.80
16.03
17.83
19.58
20.74
20.91
19.89
17.77
14.78
11.29
7.70
4.30
1.18
-1.77
-4.76
-7.94
-11.37
-15.02
-18.81
-22.71
-26.67
-30.66
-34.62
-38.59
-42.72
-47.20
-52.03
-56.80
-60.58
-62.26
-60.80
-55.70
-47.11
-35.79
-22.81
-9.36
3.51
14.99
24.45
31.53
36.15
38.37
38.45
36.81
34.04
30.79
27.75
25.47
24.19
23.85
24.13
24.65
25.11
25.28
25.11
24.55
23.60
22.26
20.57
18.57
16.30
13.81
11.18
8.48
5.77
2.95
-0.19
-3.91
-8.34
-13.30
-18.36
-22.95
-26.65
-29.37
-31.44
-33.46
-36.05
-39.71
-44.50
-50.04
-55.43
-59.47
-60.84
-58.55
-52.21
-42.16
-29.47
-15.55
-1.86
10.36
20.32
27.70
32.60
35.38
36.53
36.47
35.53
33.98
32.07
30.11
28.39
27.11
26.31
25.91
25.77
25.81
26.00
26.36
26.79
27.05
26.85
25.95
24.30
21.94
19.02
15.70
12.09
8.31
4.52
0.86
-2.62
-5.97
-9.30
-12.73
-16.26
-19.82
-23.28
-26.55
-29.68
-32.86
-36.36
-40.49
-45.34
-50.61
-55.57
-59.12
-60.07
-57.54
-51.28
-41.77
-30.03
-17.25
-4.54
7.32
17.77
26.40
32.83
36.83
38.35
37.65
35.25
31.89
28.29
25.07
22.62
21.11
20.49
20.60
21.24
22.21
23.31
24.33
25.02
25.07
24.23
22.43
19.81
16.72
13.62
10.85
8.50
6.37
4.08
1.21
-2.48
-6.90
-11.70
-16.40
-20.57
-24.03
-26.85
-29.39
-32.12
-35.52
-39.88
-45.22
-51.13
-56.70
-60.69
-61.76
-58.87
-51.65
-40.62
-27.02
-12.46
1.48
13.72
23.71
31.36
36.83
40.30
41.89
41.75
40.10
37.32
33.95
30.60
27.76
25.77
24.73
24.52
24.87
25.51
26.17
26.70
26.99
26.95
26.44
25.31
23.44
20.80
17.49
13.81
10.08
6.56
3.36
0.37
-2.65
-5.98
-9.78
-14.00
-18.43
-22.75
-26.73
-30.28
-33.51
-36.68
-40.15
-44.27
-49.23
-54.91
-60.77
-65.83
-68.83
-68.54
-64.13
-55.48
-43.26
-28.76
-13.52
1.06
13.97
24.67
32.99
38.95
42.67
44.33
44.18
42.61
40.18
37.48
35.07
33.28
32.20
31.69
31.51
31.44
31.41
31.43
31.53
31.62
31.49
30.83
29.41
27.14
24.16
20.80
17.42
14.26
11.40
8.67
5.77
2.40
-1.58
-6.11
-10.95
-15.72
-20.10
-23.92
-27.18
-30.08
-32.96
-36.25
-40.34
-45.42
-51.34
-57.45
-62.66
-65.59
-64.99
-60.10
-50.97
-38.47
-24.05
-9.34
4.21
15.65
24.54
30.92
35.01
37.14
37.61
36.68
34.66
31.93
28.90
25.97
23.39
21.31
19.77
18.74
18.19
18.08
18.32
18.72
19.00
18.90
18.19
16.77
14.70
12.05
8.93
5.46
1.72
-2.20
-6.20
-10.15
-13.94
-17.47
-20.71
-23.74
-26.76
-30.09
-34.04
-38.80
-44.18
-49.52
-53.73
-55.57
-54.04
-48.65
-39.61
-27.75
-14.30
-0.52
12.45
23.78
32.92
39.57
43.59
45.02
44.09
41.18
36.83
31.70
26.44
21.62
17.65
14.74
12.87
11.89
11.55
11.61
11.81
11.99
11.98
11.66
10.84
9.33
6.94
3.55
-0.79
-5.80
-11.09
-16.21
-20.90
-25.08
-28.97
-32.93
-37.36
-42.51
-48.46
-54.97
-61.44
-66.99
-70.50
-70.83
-67.12
-59.06
-47.07
-32.25
-16.13
-0.36
13.75
25.35
34.19
40.38
44.24
46.11
46.22
44.79
42.09
38.54
34.64
30.95
27.89
25.69
24.33
23.65
23.40
23.33
23.29
23.14
22.80
22.13
20.94
18.98
16.08
12.19
7.47
2.26
-3.04
-8.05
-12.59
-16.72
-20.67
-24.77
-29.45
-34.99
-41.46
-48.56
-55.54
-61.24
-64.28
-63.53
-58.35
-48.90
-36.06
-21.22
-5.94
8.46
21.01
31.19
38.87
44.16
47.29
48.56
48.22
46.58
43.94
40.72
37.35
34.28
31.83
30.14
29.16
28.71
28.58
28.61
28.64
28.50
27.98
26.85
24.92
22.16
18.70
14.76
10.54
6.18
1.74
-2.79
-7.34
-11.83
-16.16
-20.29
-24.29
-28.32
-32.62
-37.43
-42.89
-48.93
-55.16
-60.78
-64.65
-65.54
-62.49
-55.10
-43.86
-29.92
-14.86
-0.16
13.07
24.23
33.12
39.68
43.88
45.70
45.27
42.92
39.26
35.00
30.82
27.23
24.51
22.79
22.02
22.04
22.56
23.21
23.61
23.51
22.82
21.58
19.90
17.82
15.33
12.37
8.92
5.05
0.92
-3.28
-7.39
-11.34
-15.19
-19.03
-23.02
-27.27
-31.92
-36.98
-42.41
-47.95
-53.09
-57.03
-58.77
-57.30
-52.00
-42.84
-30.54
-16.38
-1.88
11.64
23.26
32.53
39.32
43.65
45.56
45.20
42.88
39.12
34.64
30.19
26.35
23.48
21.68
20.84
20.73
21.09
21.63
22.05
22.09
21.53
20.25
18.26
15.68
12.71
9.52
6.17
2.63
-1.23
-5.54
-10.31
-15.42
-20.60
-25.53
-29.98
-33.86
-37.32
-40.74
-44.66
-49.57
-55.66
-62.59
-69.37
-74.48
-76.23
-73.32
-65.23
-52.49
-36.48
-19.07
-2.07
13.12
25.74
35.59
42.80
47.64
50.39
51.26
50.50
48.48
45.67
42.69
40.07
38.15
37.00
36.39
36.02
35.60
35.04
34.38
33.73
33.13
32.53
31.75
30.58
28.87
26.56
23.65
20.20
16.30
12.07
7.67
3.31
-0.87
-4.82
-8.61
-12.42
-16.38
-20.52
-24.69
-28.68
-32.29
-35.52
-38.60
-41.95
-46.03
-51.14
-57.28
-64.03
-70.56
-75.69
-78.14
-76.75
-70.88
-60.56
-46.57
-30.25
-13.22
3.02
17.34
29.09
38.03
44.20
47.80
49.12
48.53
46.48
43.56
40.36
37.49
35.41
34.36
34.31
34.98
35.97
36.89
37.49
37.65
37.41
36.78
35.71
34.11
31.94
29.26
26.20
22.95
19.63
16.24
12.72
9.02
5.18
1.29
-2.57
-6.40
-10.19
-13.96
-17.66
-21.19
-24.46
-27.46
-30.29
-33.15
-36.22
-39.71
-43.83
-48.76
-54.56
-61.01
-67.48
-72.82
-75.62
-74.59
-68.94
-58.74
-44.87
-28.80
-12.17
3.57
17.40
28.75
37.37
43.21
46.38
47.15
45.96
43.41
40.14
36.79
33.83
31.52
29.94
29.01
28.61
28.59
28.83
29.22
29.65
30.02
30.19
29.99
29.25
27.79
25.59
22.72
19.39
15.88
12.40
9.09
5.92
2.79
-0.43
-3.88
-7.58
-11.49
-15.49
-19.41
-23.06
-26.36
-29.28
-31.99
-34.76
-37.94
-41.90
-46.85
-52.68
-58.89
-64.48
-68.17
-68.66
-65.05
-57.13
-45.48
-31.35
-16.25
-1.62
11.51
22.53
31.19
37.42
41.24
42.67
41.91
39.31
35.43
31.00
26.74
23.22
20.76
19.41
19.01
19.30
20.03
21.01
22.06
23.00
23.58
23.48
22.43
20.28
17.17
13.44
9.57
5.98
2.84
0.04
-2.79
-6.03
-9.92
-14.41
-19.18
-23.82
-28.00
-31.64
-34.93
-38.25
-41.99
-46.48
-51.72
-57.35
-62.61
-66.35
-67.34
-64.52
-57.42
-46.32
-32.27
-16.70
-1.08
13.39
25.88
35.90
43.12
47.34
48.60
47.20
43.76
39.14
34.23
29.83
26.46
24.32
23.32
23.19
23.55
24.04
24.44
24.65
24.63
24.30
23.52
22.10
19.95
17.12
13.88
10.55
7.32
4.19
0.90
-2.84
-7.22
-12.21
-17.50
-22.70
-27.43
-31.52
-35.03
-38.24
-41.61
-45.60
-50.59
-56.65
-63.41
-69.91
-74.76
-76.38
-73.52
-65.61
-53.08
-37.26
-20.00
-3.13
11.93
24.42
34.09
41.03
45.38
47.31
47.04
44.95
41.65
37.87
34.28
31.34
29.24
27.90
27.16
26.83
26.83
27.11
27.59
28.12
28.43
28.18
27.11
25.08
22.12
18.50
14.57
10.65
6.93
3.40
-0.12
-3.87
-8.02
-12.58
-17.38
-22.16
-26.68
-30.82
-34.67
-38.51
-42.74
-47.70
-53.41
-59.46
-64.88
-68.32
-68.43
-64.23
-55.48
-42.79
-27.48
-11.18
4.58
18.61
30.24
39.17
45.34
48.83
49.81
48.62
45.76
41.91
37.80
34.04
31.04
29.00
27.99
27.90
28.54
29.61
30.70
31.38
31.33
30.38
28.55
26.02
23.01
19.79
16.56
13.46
10.47
7.45
4.15
0.36
-3.99
-8.79
-13.73
-18.47
-22.80
-26.62
-30.04
-33.33
-36.90
-41.16
-46.37
-52.32
-58.21
-62.65
-64.07
-61.21
-53.64
-41.85
-27.16
-11.31
4.10
17.80
29.01
37.34
42.69
45.22
45.23
43.27
39.94
35.95
31.91
28.32
25.51
23.64
22.69
22.54
22.96
23.68
24.40
24.83
24.73
23.99
22.66
20.87
18.75
16.40
13.83
10.97
7.75
4.13
0.14
-4.08
-8.37
-12.51
-16.28
-19.55
-22.32
-24.79
-27.37
-30.54
-34.71
-39.94
-45.80
-51.36
-55.35
-56.50
-53.90
-47.28
-37.10
-24.43
-10.63
2.93
15.17
25.41
33.32
38.79
41.83
42.56
41.22
38.22
34.16
29.76
25.65
22.33
20.01
18.68
18.19
18.38
19.07
20.04
20.95
21.43
21.14
19.89
17.73
14.94
11.87
8.80
5.77
2.63
-0.87
-4.90
-9.37
-14.01
-18.44
-22.39
-25.81
-28.91
-32.04
-35.58
-39.82
-44.87
-50.59
-56.46
-61.64
-64.96
-65.21
-61.48
-53.54
-41.92
-27.86
-12.98
1.24
13.69
23.84
31.59
37.08
40.53
42.15
42.14
40.78
38.45
35.60
32.68
30.06
27.96
26.48
25.64
25.38
25.62
26.19
26.86
27.28
27.12
26.11
24.16
21.34
17.92
14.25
10.70
7.53
4.81
2.42
-0.01
-2.86
-6.40
-10.62
-15.23
-19.75
-23.77
-27.13
-30.00
-32.85
-36.22
-40.50
-45.75
-51.54
-57.03
-61.05
-62.32
-59.83
-53.14
-42.53
-29.02
-14.07
0.74
14.09
25.11
33.38
38.84
41.70
42.31
41.09
38.59
35.37
32.00
28.94
26.50
24.79
23.74
23.20
23.04
23.16
23.50
24.00
24.52
24.82
24.59
23.60
21.76
19.16
16.06
12.77
9.53
6.50
3.67
0.92
-1.95
-5.14
-8.72
-12.65
-16.67
-20.47
-23.75
-26.40
-28.62
-30.81
-33.52
-37.20
-42.03
-47.74
-53.58
-58.37
-60.82
-59.82
-54.79
-45.90
-34.02
-20.47
-6.69
6.05
16.86
25.26
31.10
34.54
35.85
35.42
33.69
31.09
28.07
25.04
22.36
20.29
18.95
18.31
18.28
18.72
19.54
20.57
21.58
22.23
22.16
21.11
19.03
16.12
12.74
9.30
6.12
3.33
0.88
-1.45
-3.97
-6.92
-10.44
-14.40
-18.54
-22.47
-25.94
-28.88
-31.41
-33.87
-36.68
-40.21
-44.60
-49.61
-54.48
-58.03
-58.95
-56.21
-49.49
-39.30
-26.84
-13.59
-0.92
10.17
19.12
25.69
29.81
31.54
31.17
29.15
26.14
22.79
19.67
17.14
15.37
14.37
14.03
14.22
14.78
15.53
16.27
16.81
16.95
16.54
15.46
13.69
11.31
8.44
5.21
1.71
-1.99
-5.85
-9.80
-13.71
-17.47
-21.01
-24.39
-27.78
-31.48
-35.77
-40.79
-46.48
-52.41
-57.77
-61.49
-62.43
-59.74
-53.10
-42.91
-30.18
-16.33
-2.73
9.56
19.91
28.12
34.18
38.18
40.22
40.45
39.13
36.68
33.68
30.72
28.26
26.55
25.59
25.25
25.33
25.67
26.20
26.83
27.38
27.62
27.21
25.86
23.48
20.24
16.45
12.50
8.64
4.91
1.19
-2.71
-6.83
-11.10
-15.26
-19.08
-22.46
-25.51
-28.55
-31.98
-36.12
-41.19
-47.19
-53.89
-60.74
-66.80
-70.87
-71.65
-68.19
-60.19
-48.22
-33.60
-17.93
-2.73
10.93
22.49
31.75
38.75
43.58
46.32
47.15
46.37
44.42
41.88
39.33
37.23
35.80
35.02
34.65
34.52
34.52
34.72
35.19
35.87
36.47
36.51
35.52
33.29
29.91
25.78
21.39
17.23
13.55
10.35
7.43
4.42
0.99
-3.02
-7.57
-12.34
-16.96
-21.12
-24.72
-27.85
-30.82
-33.98
-37.72
-42.34
-47.95
-54.29
-60.66
-65.88
-68.54
-67.39
-61.70
-51.56
-37.86
-22.03
-5.74
9.53
22.69
33.15
40.76
45.68
48.22
48.76
47.73
45.59
42.85
40.04
37.63
35.90
34.91
34.54
34.56
34.75
34.96
35.13
35.22
35.15
34.83
34.10
32.79
30.82
28.14
24.82
21.05
17.06
13.08
9.28
5.70
2.29
-1.08
-4.50
-8.08
-11.79
-15.54
-19.21
-22.61
-25.64
-28.31
-30.83
-33.54
-36.85
-41.09
-46.35
-52.36
-58.43
-63.54
-66.47
-66.09
-61.67
-53.10
-40.97
-26.49
-11.19
3.44
16.20
26.38
33.72
38.31
40.46
40.56
39.08
36.50
33.35
30.12
27.25
25.09
23.78
23.29
23.45
23.99
24.67
25.27
25.61
25.58
25.05
23.93
22.20
19.92
17.22
14.25
11.13
7.90
4.51
0.88
-3.04
-7.21
-11.44
-15.50
-19.08
-21.97
-24.18
-25.94
-27.74
-30.18
-33.79
-38.78
-44.84
-51.13
-56.35
-59.02
-57.92
-52.44
-42.81
-30.03
-15.68
-1.37
11.55
22.29
30.58
36.46
40.10
41.62
41.15
38.94
35.48
31.47
27.66
24.66
22.72
21.75
21.40
21.33
21.34
21.42
21.69
22.13
22.55
22.50
21.50
19.21
15.68
11.33
6.80
2.67
-0.83
-3.86
-6.86
-10.26
-14.28
-18.79
-23.44
-27.89
-31.93
-35.62
-39.19
-42.93
-47.14
-52.04
-57.68
-63.82
-69.89
-74.92
-77.75
-77.26
-72.78
-64.30
-52.49
-38.58
-24.02
-10.19
1.90
11.66
18.92
23.75
26.39
27.08
26.10
23.80
20.62
17.10
13.74
10.92
8.77
7.31
6.56
6.75
8.29
11.74
17.40
25.20
34.67
45.06
55.61
65.75
75.09
83.41
90.63
96.74
101.92
106.52
110.94
115.45
120.04
124.31
127.66
129.47
129.31
127.07
123.09
118.01
112.71
108.01
104.45
102.02
100.19
97.99
94.34
88.35
79.52
68.01
54.60
40.70
28.10
18.59
13.44
12.99
16.55
22.61
29.36
35.21
39.11
40.61
39.75
36.88
32.55
27.53
22.63
18.61
15.85
14.18
12.83
10.65
6.45
-0.59
-10.55
-22.85
-36.32
-49.66
-61.82
-72.24
-80.94
-88.34
-95.00
-101.41
-107.85
-114.35
-120.87
-127.33
-133.68
-139.91
-146.02
-151.96
-157.61
-162.78
-167.22
-170.67
-172.92
-173.86
-173.49
-171.91
-169.38
-166.31
-163.28
-160.96
-160.01
-160.89
-163.57
-167.45
-171.32
-173.62
-172.79
-167.76
-158.17
-144.47
-127.74
-109.40
-90.83
-73.10
-56.84
-42.31
-29.46
-18.11
-7.97
1.40
10.58
20.33
31.48
44.76
60.51
78.53
97.96
117.46
135.57
151.08
163.37
172.42
178.61
182.42
184.19
184.02
181.91
177.94
172.37
165.54
157.70
148.93
139.09
128.02
115.73
102.52
88.95
75.63
63.05
51.40
40.55
30.18
19.98
9.76
-0.46
-10.47
-20.05
-29.11
-37.79
-46.37
-55.15
-64.23
-73.41
-82.36
-90.71
-98.34
-105.27
-111.68
-117.68
-123.21
-128.04
-131.86
-134.28
-134.87
-133.09
-128.40
-120.42
-109.17
-95.18
-79.45
-63.18
-47.44
-32.89
-19.71
-7.62
3.83
15.11
26.53
38.06
49.41
60.17
69.94
78.46
85.69
91.70
96.58
100.42
103.30
105.37
106.85
107.94
108.78
109.38
109.73
109.84
109.80
109.64
109.15
107.81
104.91
99.87
92.59
83.55
73.62
63.59
53.73
43.61
32.28
18.74
2.40
-16.60
-37.32
-58.11
-76.81
-91.18
-99.26
-99.87
-93.05
-80.18
-63.78
-46.94
-32.60
-22.86
-18.70
-19.97
-25.68
-34.35
-44.37
-54.22
-62.65
-68.77
-72.03
-72.32
-69.88
-65.23
-59.14
-52.37
-45.57
-39.10
-33.01
-27.10
-21.14
-15.15
-9.42
-4.48
-0.94
0.80
0.62
-1.31
-4.69
-9.19
-14.49
-20.22
-26.01
-31.56
-36.74
-41.79
-47.31
-54.02
-62.52
-72.99
-85.00
-97.59
-109.46
-119.25
-125.75
-128.11
-125.79
-118.66
-106.93
-91.06
-71.85
-50.31
-27.65
-5.26
15.60
34.02
49.69
62.80
73.94
83.75
92.75
101.28
109.52
117.57
125.46
133.13
140.42
147.26
153.68
159.86
166.00
172.04
177.52
181.67
183.65
182.94
179.63
174.25
167.71
160.90
154.60
149.21
144.79
140.90
136.78
131.52
124.34
114.83
103.08
89.39
74.29
58.40
42.50
27.47
14.22
3.40
-4.89
-11.10
-16.05
-20.55
-25.09
-29.73
-34.20
-38.06
-40.80
-42.02
-41.40
-38.95
-35.03
-30.38
-25.92
-22.48
-20.48
-19.93
-20.55
-21.99
-24.01
-26.50
-29.37
-32.37
-35.09
-36.96
-37.47
-36.28
-33.36
-29.07
-23.97
-18.68
-13.68
-9.22
-5.41
-2.40
-0.53
-0.27
-1.99
-5.71
-10.82
-16.30
-21.01
-24.21
-25.88
-26.68
-27.59
-29.39
-32.31
-35.99
-39.74
-42.95
-45.32
-47.06
-48.79
-51.40
-55.94
-63.41
-74.50
-89.39
-107.43
-127.20
-146.70
-163.79
-176.68
-184.25
-186.15
-182.73
-174.79
-163.44
-149.95
-135.65
-121.82
-109.55
-99.54
-92.07
-86.96
-83.72
-81.79
-80.65
-79.99
-79.67
-79.66
-80.06
-80.98
-82.51
-84.70
-87.44
-90.47
-93.45
-96.05
-98.03
-99.35
-100.13
-100.53
-100.64
-100.43
-99.68
-98.09
-95.44
-91.71
-87.16
-82.29
-77.60
-73.31
-69.22
-64.67
-58.93
-51.57
-42.78
-33.43
-24.75
-17.99
-14.07
-13.32
-15.45
-19.47
-23.84
-26.63
-25.93
-20.35
-9.46
5.97
24.22
43.12
60.65
75.48
87.11
95.73
101.82
105.83
107.99
108.28
106.68
103.28
98.44
92.67
86.51
80.50
75.04
70.48
67.08
64.98
64.06
64.01
64.27
64.22
63.34
61.35
58.21
54.10
49.22
43.75
37.77
31.24
24.10
16.33
8.00
-0.66
-9.36
-17.75
-25.68
-33.10
-40.18
-47.21
-54.49
-62.17
-70.15
-77.94
-84.66
-89.15
-90.18
-86.74
-78.29
-64.97
-47.60
-27.61
-6.68
13.45
31.39
46.20
57.42
65.01
69.24
70.60
69.78
67.60
64.90
62.48
60.92
60.48
61.16
62.76
64.91
67.21
69.23
70.61
71.10
70.62
69.29
67.27
64.68
61.49
57.57
52.71
46.86
40.15
32.93
25.63
18.65
12.17
6.13
0.25
-5.88
-12.72
-20.59
-29.58
-39.34
-49.00
-57.26
-62.52
-63.35
-58.83
-48.83
-34.04
-15.81
4.18
24.26
43.03
59.45
72.86
82.92
89.53
92.78
92.95
90.54
86.26
80.96
75.53
70.73
67.03
64.58
63.21
62.61
62.42
62.30
62.01
61.34
60.15
58.33
55.82
52.61
48.75
44.33
39.41
34.08
28.40
22.42
16.23
9.94
3.75
-2.15
-7.66
-12.83
-17.95
-23.48
-29.87
-37.28
-45.30
-52.92
-58.64
-60.92
-58.59
-51.24
-39.32
-24.01
-6.92
10.32
26.27
39.86
50.46
57.77
61.82
62.92
61.60
58.58
54.66
50.60
47.02
44.29
42.51
41.53
41.05
40.72
40.26
39.50
38.37
36.95
35.34
33.61
31.74
29.58
26.92
23.56
19.42
14.64
9.48
4.29
-0.68
-5.34
-9.82
-14.36
-19.21
-24.53
-30.38
-36.65
-42.99
-48.79
-53.15
-55.02
-53.37
-47.60
-37.73
-24.48
-9.19
6.56
21.31
33.96
43.82
50.62
54.36
55.22
53.58
50.00
45.24
40.12
35.41
31.67
29.15
27.78
27.26
27.19
27.16
26.85
26.08
24.77
22.93
20.62
17.94
14.90
11.48
7.58
3.10
-1.98
-7.52
-13.22
-18.74
-23.80
-28.32
-32.42
-36.48
-40.95
-46.26
-52.64
-59.92
-67.47
-74.13
-78.46
-79.05
-74.91
-65.86
-52.55
-36.31
-18.79
-1.53
14.24
27.73
38.49
46.31
51.21
53.42
53.42
51.84
49.40
46.69
44.10
41.77
39.67
37.77
36.09
34.73
33.82
33.40
33.30
33.21
32.72
31.48
29.32
26.30
22.68
18.78
14.88
11.07
7.29
3.35
-0.94
-5.69
-10.84
-16.19
-21.42
-26.23
-30.43
-34.06
-37.42
-41.07
-45.54
-51.19
-57.98
-65.31
-72.04
-76.75
-78.01
-74.78
-66.72
-54.30
-38.72
-21.58
-4.56
10.98
24.14
34.53
42.15
47.19
49.95
50.74
49.93
47.96
45.33
42.54
40.02
38.04
36.65
35.79
35.29
34.99
34.78
34.61
34.39
34.02
33.34
32.18
30.39
27.91
24.79
21.22
17.45
13.68
10.06
6.55
3.06
-0.57
-4.37
-8.35
-12.46
-16.64
-20.89
-25.13
-29.22
-32.99
-36.28
-39.11
-41.75
-44.66
-48.38
-53.27
-59.34
-66.13
-72.71
-77.80
-80.04
-78.29
-71.98
-61.25
-47.00
-30.66
-13.87
1.91
15.59
26.55
34.61
39.86
42.60
43.20
42.14
39.94
37.11
34.12
31.32
28.93
27.03
25.58
24.56
23.95
23.73
23.89
24.36
24.97
25.47
25.54
24.84
23.08
20.19
16.32
11.90
7.42
3.36
-0.12
-3.12
-5.95
-8.92
-12.16
-15.67
-19.29
-22.88
-26.39
-29.84
-33.28
-36.74
-40.25
-43.94
-48.00
-52.62
-57.72
-62.81
-66.90
-68.69
-67.02
-61.19
-51.27
-38.11
-22.99
-7.39
7.43
20.53
31.30
39.34
44.43
46.54
45.93
43.15
39.04
34.53
30.43
27.21
25.03
23.71
22.98
22.54
22.24
22.06
21.98
22.03
22.09
21.97
21.39
20.08
17.87
14.74
10.95
6.87
2.92
-0.65
-3.86
-6.97
-10.39
-14.38
-19.00
-24.00
-28.96
-33.52
-37.44
-40.81
-43.93
-47.26
-51.27
-56.28
-62.27
-68.83
-75.10
-79.81
-81.53
-79.05
-71.76
-59.83
-44.30
-26.79
-9.08
7.29
21.33
32.57
40.97
46.68
49.91
50.86
49.82
47.19
43.54
39.57
35.92
33.06
31.22
30.30
29.98
29.92
29.88
29.76
29.59
29.43
29.21
28.72
27.66
25.80
23.09
19.68
15.89
12.05
8.39
4.95
1.63
-1.83
-5.66
-9.98
-14.76
-19.79
-24.77
-29.39
-33.48
-37.06
-40.31
-43.54
-47.11
-51.38
-56.58
-62.72
-69.42
-75.84
-80.69
-82.47
-79.91
-72.35
-60.05
-44.13
-26.29
-8.32
8.29
22.54
33.99
42.52
48.27
51.43
52.26
51.14
48.56
45.09
41.33
37.74
34.66
32.25
30.59
29.68
29.49
29.92
30.85
32.04
33.21
34.06
34.26
33.53
31.69
28.74
24.87
20.45
15.93
11.74
8.10
5.00
2.24
-0.51
-3.53
-7.00
-10.92
-15.15
-19.39
-23.38
-26.88
-29.81
-32.28
-34.58
-37.15
-40.43
-44.67
-49.75
-55.01
-59.29
-61.11
-59.07
-52.22
-40.42
-24.39
-5.59
14.16
33.07
49.70
63.07
72.67
78.34
80.23
78.73
74.50
68.34
61.06
53.34
45.57
37.87
30.22
22.59
15.06
7.84
1.16
-4.80
-10.05
-14.75
-19.23
-23.93
-29.21
-35.30
-42.11
-49.35
-56.56
-63.29
-69.26
-74.34
-78.48
-81.63
-83.72
-84.67
-84.48
-83.32
-81.49
-79.39
-77.43
-76.00
-75.43
-75.98
-77.68
-80.23
-82.84
-84.23
-82.92
-77.58
-67.46
-52.66
-34.14
-13.43
7.79
28.06
46.29
61.75
73.90
82.36
86.93
87.80
85.55
81.10
75.47
69.55
63.97
59.08
55.12
52.29
50.71
50.38
51.05
52.19
53.06
52.87
51.01
47.24
41.70
34.90
27.52
20.15
13.13
6.51
0.11
-6.26
-12.63
-18.82
-24.50
-29.37
-33.33
-36.54
-39.41
-42.49
-46.35
-51.36
-57.53
-64.33
-70.66
-75.08
-76.07
-72.49
-63.89
-50.67
-33.97
-15.40
3.31
20.67
35.58
47.38
55.86
61.08
63.34
63.07
60.84
57.33
53.25
49.33
46.10
43.85
42.57
42.03
41.92
41.97
42.03
42.01
41.84
41.46
40.83
39.95
38.85
37.52
35.91
33.83
31.12
27.70
23.69
19.37
15.12
11.29
8.07
5.41
3.01
0.31
-3.34
-8.55
-15.54
-23.90
-32.54
-39.78
-43.82
-43.23
-37.35
-26.52
-12.00
4.36
20.55
34.81
45.89
53.15
56.49
56.20
52.82
47.00
39.59
31.56
23.91
17.51
12.80
9.68
7.51
5.33
2.25
-2.28
-8.32
-15.53
-23.28
-30.98
-38.17
-44.64
-50.42
-55.68
-60.63
-65.45
-70.16
-74.61
-78.55
-81.72
-83.90
-85.02
-85.21
-84.73
-83.98
-83.39
-83.37
-84.16
-85.61
-87.11
-87.60
-85.75
-80.34
-70.64
-56.73
-39.46
-20.29
-0.91
17.16
32.77
45.21
54.16
59.61
61.78
61.09
58.20
53.92
49.15
44.67
41.05
38.55
37.14
36.60
36.65
37.00
37.43
37.74
37.71
37.06
35.54
32.94
29.16
24.33
18.73
12.73
6.74
1.01
-4.34
-9.42
-14.49
-19.91
-26.02
-33.00
-40.70
-48.56
-55.51
-60.20
-61.29
-57.82
-49.52
-36.93
-21.25
-4.12
12.77
27.99
40.50
49.79
55.69
58.37
58.20
55.69
51.52
46.43
41.22
36.52
32.73
29.92
27.91
26.40
25.12
23.92
22.76
21.65
20.56
19.38
17.92
15.95
13.29
9.84
5.65
0.88
-4.24
-9.50
-14.73
-19.87
-24.97
-30.14
-35.58
-41.50
-48.02
-54.91
-61.45
-66.39
-68.26
-65.80
-58.44
-46.57
-31.44
-14.73
1.94
17.27
30.42
40.92
48.47
52.94
54.42
53.26
50.16
45.98
41.56
37.52
34.16
31.50
29.36
27.55
25.97
24.59
23.41
22.39
21.41
20.24
18.63
16.38
13.42
9.79
5.62
1.09
-3.60
-8.30
-12.91
-17.42
-21.92
-26.62
-31.81
-37.74
-44.41
-51.46
-58.00
-62.80
-64.50
-62.01
-54.86
-43.41
-28.80
-12.62
3.44
18.00
30.19
39.65
46.39
50.55
52.34
51.96
49.76
46.21
41.92
37.51
33.48
30.15
27.62
25.84
24.66
23.90
23.32
22.71
21.90
20.77
19.26
17.31
14.87
11.83
8.17
3.97
-0.56
-5.11
-9.42
-13.42
-17.26
-21.21
-25.51
-30.33
-35.68
-41.45
-47.47
-53.47
-58.99
-63.23
-65.14
-63.64
-57.97
-48.02
-34.49
-18.78
-2.53
12.72
25.85
36.22
43.62
48.06
49.71
48.89
46.11
42.00
37.29
32.65
28.57
25.34
23.10
21.81
21.31
21.34
21.57
21.66
21.31
20.39
18.93
17.04
14.84
12.40
9.72
6.69
3.24
-0.69
-5.05
-9.68
-14.33
-18.70
-22.58
-25.88
-28.79
-31.65
-34.94
-39.07
-44.16
-49.89
-55.48
-59.72
-61.30
-59.17
-52.85
-42.58
-29.31
-14.37
0.76
14.77
26.62
35.68
41.69
44.71
45.12
43.49
40.44
36.55
32.32
28.18
24.51
21.63
19.75
18.84
18.70
18.95
19.24
19.30
18.99
18.25
17.04
15.27
12.90
9.91
6.39
2.54
