1629147737.00
64.000000
-0.00
-0.00
-0.00
-0.00
-0.00
-0.00
-0.00
-0.00
-0.00
-0.00
0.00
0.01
0.01
-0.00
-0.03
-0.05
-0.05
0.00
0.13
0.36
0.66
1.01
1.37
1.72
2.06
2.40
2.79
3.24
3.80
4.42
5.06
5.66
6.20
6.68
7.15
7.68
8.31
9.14
10.09
11.04
11.88
12.56
13.14
13.76
14.65
15.96
17.91
20.32
22.90
25.38
27.58
29.57
31.68
34.32
37.81
42.54
48.15
54.10
59.83
64.97
69.58
74.14
79.34
85.71
93.76
103.00
112.62
121.73
129.77
136.75
143.30
150.75
157.77
166.64
177.95
191.79
206.97
220.57
228.25
225.36
208.53
176.87
132.76
80.05
23.07
-34.94
-92.44
-149.16
-205.23
-260.37
-313.74
-363.87
-409.83
-450.91
-486.50
-515.74
-537.23
-549.22
-549.96
-538.37
-514.21
-478.67
-433.88
-382.45
-327.02
-269.84
-212.63
-156.66
-102.95
-52.37
-5.90
35.58
71.43
101.35
125.50
144.38
158.69
169.15
176.37
180.75
182.57
182.07
179.51
175.23
169.65
163.18
156.15
148.81
141.30
133.69
126.02
118.33
110.69
103.16
95.80
88.68
81.83
75.25
68.95
62.95
57.25
51.86
46.78
42.03
37.59
33.45
29.61
26.07
22.81
19.83
17.11
14.67
12.48
10.54
8.83
7.35
6.07
4.97
4.05
3.27
2.62
2.09
1.65
1.30
1.01
0.79
0.61
0.47
0.38
0.31
0.26
0.22
0.15
0.07
-0.01
-0.09
-0.14
-0.16
-0.13
-0.10
-0.08
-0.10
-0.16
-0.25
-0.31
-0.34
-0.30
-0.21
-0.12
-0.07
-0.10
-0.23
-0.41
-0.58
-0.65
-0.59
-0.41
-0.22
-0.14
-0.27
-0.62
-1.12
-1.56
-1.78
-1.67
-1.29
-0.84
-0.63
-0.86
-1.57
-2.56
-3.46
-3.90
-3.69
-2.95
-2.08
-1.58
-1.84
-2.93
-4.49
-5.92
-6.67
-6.44
-5.40
-4.03
-2.96
-2.66
-3.36
-5.07
-7.67
-10.72
-13.34
-14.26
-12.16
-6.34
2.65
12.98
22.09
27.93
29.77
28.54
26.12
24.36
24.01
24.49
24.44
22.69
18.86
13.61
8.10
3.33
-0.23
-2.75
-4.64
-6.23
-7.49
-8.19
-8.13
-7.33
-6.12
-4.99
-4.35
-4.38
-4.99
-5.80
-6.34
-6.25
-5.41
-4.02
-2.67
-2.01
-2.56
-4.35
-6.93
-9.52
-11.35
-11.94
-11.36
-10.01
-8.53
-7.50
-7.25
-7.77
-8.79
-9.96
-10.85
-11.23
-11.11
-10.81
-10.77
-11.33
-12.58
-14.33
-16.09
-17.12
-16.66
-14.10
-9.15
-2.04
6.61
15.90
25.01
32.79
38.50
41.85
42.96
42.18
39.86
36.33
31.96
27.18
22.48
18.37
15.23
13.21
12.23
12.03
12.33
12.85
13.41
13.88
14.20
14.29
13.96
12.94
11.05
8.35
5.17
2.00
-0.72
-2.84
-4.54
-6.25
-8.41
-11.22
-14.59
-18.25
-21.78
-24.85
-27.18
-28.66
-29.42
-29.90
-30.75
-32.71
-36.28
-41.33
-47.00
-51.80
-54.04
-52.31
-46.07
-35.76
-22.70
-8.68
4.57
15.84
24.51
30.52
34.09
35.48
34.94
32.73
29.25
25.10
21.04
17.82
15.91
15.45
16.18
17.59
19.13
20.42
21.23
21.49
21.17
20.25
18.67
16.44
13.68
10.58
7.36
4.15
1.00
-2.21
-5.58
-9.19
-13.00
-16.88
-20.62
-24.01
-26.95
-29.57
-32.24
-35.46
-39.62
-44.71
-50.11
-54.66
-57.02
-56.01
-51.02
-42.23
-30.47
-17.02
-3.29
9.46
20.24
28.46
33.85
36.35
36.16
33.76
29.88
25.48
21.58
18.97
17.99
18.57
20.25
22.42
24.45
25.78
25.97
24.79
22.34
19.06
15.65
12.75
10.68
9.31
8.13
6.50
3.94
0.16
-4.81
-10.67
-16.86
-22.72
-27.58
-31.07
-33.28
-34.81
-36.52
-39.25
-43.49
-49.18
-55.61
-61.45
-65.01
-64.62
-59.12
-48.39
-33.54
-16.61
0.02
14.37
25.29
32.50
36.36
37.54
36.86
35.13
33.18
31.76
31.32
31.89
33.09
34.37
35.22
35.26
34.39
32.77
30.74
28.68
26.97
25.77
24.96
24.17
22.96
21.02
18.31
14.96
11.18
7.07
2.64
-2.15
-7.19
-12.24
-16.91
-20.88
-23.93
-26.15
-27.87
-29.75
-32.56
-36.98
-43.32
-51.27
-59.86
-67.54
-72.48
-73.10
-68.50
-58.71
-44.77
-28.48
-11.94
3.02
15.24
24.34
30.60
34.70
37.27
38.82
39.67
40.02
40.04
39.74
39.10
38.08
36.72
35.22
33.97
33.33
33.53
34.53
36.02
37.49
38.43
38.37
37.00
34.20
30.19
25.44
20.57
16.17
12.61
9.90
7.83
6.05
4.28
2.23
-0.35
-3.62
-7.65
-12.27
-17.07
-21.55
-25.32
-28.24
-30.47
-32.38
-34.42
-37.11
-40.92
-46.24
-53.13
-61.14
-69.14
-75.47
-78.35
-76.35
-68.97
-56.72
-41.05
-23.98
-7.57
6.60
17.73
25.78
31.29
34.95
37.30
38.56
38.82
38.20
37.08
35.95
35.26
35.21
35.70
36.40
37.07
37.57
37.93
38.21
38.39
38.36
37.95
36.94
35.22
32.73
29.61
26.06
22.36
18.75
15.40
12.32
9.42
6.60
3.82
1.03
-1.85
-4.92
-8.29
-11.98
-15.80
-19.45
-22.64
-25.27
-27.51
-29.70
-32.26
-35.57
-39.89
-45.22
-51.27
-57.34
-62.28
-64.68
-63.27
-57.37
-47.15
-33.79
-19.04
-4.80
7.50
17.23
24.48
29.71
33.32
35.44
35.95
34.80
32.28
29.10
26.13
24.03
22.98
22.70
22.76
22.85
23.02
23.52
24.53
25.89
27.19
27.82
27.27
25.25
21.74
17.09
11.86
6.72
2.34
-0.95
-3.28
-5.21
-7.45
-10.52
-14.48
-19.00
-23.57
-27.78
-31.40
-34.54
-37.39
-40.29
-43.62
-47.78
-53.01
-59.13
-65.36
-70.41
-72.76
-71.12
-64.90
-54.45
-40.85
-25.74
-10.82
2.52
13.46
21.73
27.52
31.05
32.55
32.19
30.32
27.55
24.89
23.41
23.76
26.02
29.57
33.44
36.75
38.98
40.02
40.07
39.48
38.48
37.36
36.34
35.53
34.85
33.99
32.52
30.13
26.64
22.15
17.00
11.56
6.12
0.83
-4.31
-9.34
-14.26
-18.96
-23.32
-27.34
-31.30
-35.78
-41.37
-48.37
-56.58
-64.99
-72.13
-76.37
-76.39
-71.59
-62.25
-49.45
-34.93
-20.59
-7.93
2.33
10.41
17.24
23.85
30.74
37.69
43.84
48.25
50.39
50.25
48.39
45.56
42.49
39.69
37.60
36.42
36.18
36.67
37.50
38.11
37.95
36.43
33.13
27.92
21.07
13.39
6.01
0.01
-3.95
-5.93
-6.69
-7.33
-8.78
-11.52
-15.41
-19.88
-24.20
-27.89
-30.76
-32.98
-35.02
-37.43
-40.72
-45.21
-50.90
-57.48
-64.10
-69.38
-71.61
-69.23
-61.39
-48.47
-32.06
-14.55
1.73
15.12
24.95
31.36
34.84
35.99
35.39
33.67
31.62
29.99
29.35
29.82
31.15
32.81
34.29
35.08
34.86
33.53
31.23
28.30
25.26
22.58
20.48
18.96
17.82
16.80
15.66
14.06
11.64
8.15
3.58
-1.69
-6.93
-11.43
-14.80
-17.17
-19.05
-21.09
-23.73
-27.22
-31.70
-37.10
-43.10
-48.92
-53.24
-54.52
-51.51
-43.88
-32.47
-19.16
-6.21
4.30
11.17
14.43
15.09
14.68
14.68
15.91
18.38
21.50
24.52
26.86
28.34
28.88
28.36
26.49
23.05
18.16
12.54
7.31
3.58
2.03
2.63
4.73
7.40
9.65
10.76
10.34
8.42
5.35
1.71
-1.93
-5.19
-8.03
-10.60
-13.14
-15.69
-18.26
-20.91
-23.91
-27.84
-33.41
-40.92
-50.03
-59.48
-67.31
-71.40
-70.13
-62.96
-50.75
-35.42
-19.40
-4.83
7.00
15.81
22.04
26.49
29.93
32.90
35.70
38.48
41.14
43.39
44.78
44.90
43.51
40.74
37.12
33.27
29.77
26.96
24.92
23.63
22.90
22.52
22.28
21.92
21.15
19.72
17.38
14.01
9.70
4.80
-0.12
-4.45
-7.77
-10.04
-11.52
-12.66
-13.78
-15.00
-16.41
-18.14
-20.63
-24.57
-30.50
-38.45
-47.67
-56.56
-63.08
-65.35
-62.19
-53.58
-40.65
-25.35
-9.89
3.88
14.85
22.74
27.81
30.61
31.64
31.34
30.10
28.47
27.08
26.55
27.23
29.04
31.41
33.55
34.73
34.70
33.82
32.91
32.79
33.88
35.87
37.88
38.81
37.87
34.91
30.45
25.37
20.48
16.26
12.79
9.89
7.36
5.08
3.00
1.06
-0.95
-3.34
-6.53
-10.97
-17.00
-24.81
-34.38
-45.40
-57.14
-68.45
-77.84
-83.69
-84.63
-79.98
-69.97
-55.82
-39.51
-23.25
-8.94
2.25
10.05
14.96
17.89
19.74
21.20
22.58
23.94
25.25
26.51
27.79
29.17
30.62
32.04
33.34
34.49
35.56
36.70
37.95
39.11
39.68
39.02
36.62
32.33
26.43
19.64
12.81
6.70
1.81
-1.76
-4.33
-6.55
-9.21
-13.01
-18.28
-24.79
-31.80
-38.31
-43.42
-46.77
-48.66
-49.98
-51.88
-55.40
-61.14
-68.96
-77.86
-86.04
-91.13
-90.60
-82.45
-65.90
-41.98
-13.48
15.62
41.18
60.06
70.92
74.34
72.27
67.16
61.21
55.93
52.18
50.43
50.90
53.47
57.54
61.88
64.91
65.24
62.28
56.52
49.38
42.62
37.67
35.10
34.51
34.90
35.09
34.13
31.57
27.46
22.30
16.86
12.04
8.56
6.65
5.86
5.19
3.36
-0.58
-6.98
-15.43
-25.07
-34.99
-44.55
-53.56
-62.02
-69.86
-76.63
-81.44
-83.20
-81.01
-74.62
-64.61
-52.28
-39.25
-27.01
-16.40
-7.66
-0.52
5.35
10.04
13.38
15.03
14.83
12.97
10.11
7.17
5.07
4.47
5.49
7.79
10.72
13.61
16.02
17.89
19.43
20.91
22.39
23.64
24.21
23.58
21.33
17.36
11.78
4.87
-2.98
-11.29
-19.47
-26.85
-32.76
-36.74
-38.81
-39.45
-39.53
-39.99
-41.37
-43.53
-45.60
-46.32
-44.56
-39.76
-32.13
-22.51
-12.01
-1.67
7.78
15.82
22.12
26.46
28.73
29.08
28.04
26.41
25.10
24.88
26.16
28.89
32.62
36.53
39.71
41.37
41.02
38.69
34.76
29.81
24.41
18.92
13.41
7.84
2.25
-3.20
-8.09
-11.95
-14.43
-15.52
-15.61
-15.45
-16.00
-18.18
-22.65
-29.47
-38.06
-47.12
-54.86
-59.41
-59.42
-54.45
-45.17
-33.12
-20.16
-7.87
2.82
11.63
18.68
24.12
27.96
30.07
30.36
29.01
26.43
23.25
20.15
17.68
16.15
15.61
15.88
16.53
17.12
17.31
16.92
15.99
14.59
12.68
10.11
6.61
2.00
-3.54
-9.58
-15.43
-20.47
-24.40
-27.33
-29.75
-32.43
-36.09
-41.24
-47.90
-55.52
-62.91
-68.50
-70.65
-68.15
-60.60
-48.56
-33.46
-17.23
-1.78
11.43
21.63
28.68
33.01
35.24
35.91
35.42
34.05
32.05
29.79
27.68
26.04
25.01
24.46
24.16
23.89
23.59
23.38
23.44
23.80
24.32
24.66
24.38
23.08
20.46
16.47
11.21
5.05
-1.53
-7.97
-13.89
-19.11
-23.74
-28.17
-32.89
-38.39
-44.85
-52.01
-59.07
-64.72
-67.44
-65.95
-59.64
-48.76
-34.52
-18.67
-3.07
10.81
22.07
30.39
35.85
38.75
39.40
38.15
35.40
31.67
27.57
23.73
20.66
18.59
17.47
17.06
17.03
17.16
17.40
17.80
18.34
18.80
18.79
17.77
15.26
11.12
5.59
-0.72
-7.03
-12.69
-17.36
-21.14
-24.46
-27.94
-32.17
-37.51
-43.99
-51.11
-57.83
-62.69
-64.14
-60.99
-52.92
-40.66
-25.82
-10.40
3.83
15.81
25.10
31.80
36.17
38.42
38.71
37.31
34.76
31.76
28.96
26.77
25.26
24.16
23.12
21.90
20.47
19.06
17.97
17.53
17.79
18.49
19.07
18.85
17.19
13.77
8.71
2.50
-4.15
-10.49
-16.05
-20.65
-24.54
-28.25
-32.50
-37.94
-44.83
-52.73
-60.46
-66.28
-68.33
-65.26
-56.77
-43.61
-27.47
-10.44
5.53
19.09
29.54
36.83
41.27
43.32
43.41
41.97
39.48
36.58
33.97
32.25
31.67
32.06
32.84
33.39
33.31
32.58
31.50
30.44
29.55
28.70
27.57
25.79
23.10
19.41
14.79
9.38
3.42
-2.82
-8.94
-14.59
-19.58
-23.92
-27.90
-32.03
-36.85
-42.68
-49.45
-56.53
-62.72
-66.46
-66.28
-61.22
-51.25
-37.29
-21.02
-4.42
10.78
23.41
32.92
39.33
42.87
43.89
42.87
40.49
37.58
35.06
33.62
33.51
34.47
35.88
37.07
37.60
37.38
36.62
35.65
34.67
33.69
32.51
30.87
28.52
25.42
21.71
17.69
13.69
9.90
6.28
2.52
-1.76
-6.78
-12.38
-18.05
-23.10
-27.06
-29.84
-31.88
-33.95
-36.91
-41.41
-47.70
-55.43
-63.64
-70.76
-74.85
-74.20
-67.82
-55.90
-39.88
-22.00
-4.65
10.35
22.07
30.45
35.94
39.19
40.73
40.91
40.04
38.38
36.24
33.99
32.00
30.49
29.58
29.21
29.27
29.67
30.42
31.53
32.85
34.01
34.42
33.55
31.06
27.09
22.19
17.04
12.18
7.87
4.00
0.25
-3.71
-8.02
-12.56
-17.04
-21.12
-24.58
-27.47
-30.12
-33.06
-36.81
-41.72
-47.73
-54.26
-60.20
-64.11
-64.49
-60.27
-51.22
-38.13
-22.65
-6.81
7.57
19.35
28.12
34.02
37.35
38.40
37.37
34.56
30.53
26.08
22.09
19.24
17.84
17.74
18.52
19.72
20.97
22.08
22.95
23.48
23.53
22.92
21.48
19.15
16.02
12.22
7.93
3.25
-1.72
-6.92
-12.17
-17.25
-21.88
-25.89
-29.22
-32.09
-34.92
-38.25
-42.63
-48.33
-55.13
-62.24
-68.30
-71.72
-71.07
-65.46
-54.95
-40.47
-23.65
-6.44
9.32
22.30
31.87
37.98
41.10
41.86
40.96
39.02
36.56
34.04
31.86
30.27
29.39
29.16
29.43
29.99
30.70
31.45
32.07
32.40
32.22
31.32
29.63
27.23
24.27
20.88
17.12
13.00
8.45
3.46
-1.98
-7.80
-13.89
-20.06
-25.88
-30.87
-34.68
-37.33
-39.32
-41.64
-45.37
-51.22
-59.14
-68.17
-76.59
-82.38
-83.64
-79.21
-68.96
-53.90
-35.97
-17.54
-0.71
13.15
23.56
30.82
35.57
38.39
39.81
40.26
40.17
39.93
39.83
39.92
40.04
39.92
39.42
38.61
37.74
37.13
37.04
37.54
38.46
39.34
39.59
38.53
35.76
31.30
25.70
19.81
14.45
10.09
6.70
3.84
0.85
-2.78
-7.24
-12.43
-17.97
-23.35
-28.12
-32.02
-35.09
-37.77
-40.73
-44.76
-50.38
-57.57
-65.53
-72.65
-76.91
-76.43
-70.17
-58.34
-42.37
-24.54
-7.17
7.96
19.94
28.73
34.73
38.48
40.43
40.91
40.29
39.03
37.62
36.48
35.86
35.74
35.94
36.22
36.44
36.59
36.77
37.09
37.55
37.97
38.01
37.25
35.32
32.06
27.61
22.36
16.93
11.88
7.57
4.05
1.03
-1.93
-5.27
-9.21
-13.64
-18.18
-22.35
-25.79
-28.43
-30.58
-32.85
-35.96
-40.50
-46.67
-54.05
-61.49
-67.30
-69.65
-67.14
-59.26
-46.65
-30.93
-14.15
1.74
15.41
26.17
33.89
38.69
40.83
40.68
38.76
35.70
32.17
28.79
25.98
24.02
23.07
23.18
24.24
25.99
28.08
30.07
31.59
32.34
32.21
31.13
29.15
26.30
22.65
18.29
13.33
7.90
2.27
-3.30
-8.52
-13.27
-17.54
-21.51
-25.35
-29.21
-33.19
-37.45
-42.31
-48.11
-54.97
-62.44
-69.41
-74.18
-75.09
-70.99
-61.80
-48.44
-32.58
-16.12
-0.72
12.43
22.79
30.22
34.95
37.34
37.85
36.94
35.05
32.62
30.11
27.90
26.30
25.46
25.43
26.07
27.14
28.31
29.13
29.24
28.37
26.51
23.83
20.60
17.01
13.07
8.58
3.39
-2.49
-8.82
-15.09
-20.78
-25.56
-29.41
-32.63
-35.71
-39.21
-43.67
-49.41
-56.36
-63.98
-71.09
-76.05
-77.13
-73.06
-63.54
-49.43
-32.51
-14.99
1.18
14.78
25.40
33.23
38.74
42.38
44.49
45.34
45.19
44.34
43.04
41.51
39.88
38.28
36.88
35.85
35.34
35.38
35.81
36.26
36.29
35.49
33.66
30.82
27.15
22.94
18.49
13.93
9.30
4.52
-0.56
-6.03
-11.85
-17.87
-23.79
-29.34
-34.29
-38.59
-42.44
-46.33
-50.87
-56.59
-63.62
-71.33
-78.33
-82.73
-82.68
-77.03
-65.79
-50.14
-32.04
-13.68
3.10
17.16
28.10
36.06
41.50
44.92
46.80
47.44
47.12
46.14
44.83
43.54
42.58
42.08
41.96
42.04
42.15
42.19
42.19
42.15
42.01
41.61
40.70
39.08
36.68
33.52
29.77
25.64
21.36
17.08
12.93
8.98
5.20
1.50
-2.28
-6.36
-10.88
-15.85
-21.09
-26.23
-30.89
-34.79
-37.97
-40.77
-43.82
-47.77
-53.15
-60.15
-68.43
-77.04
-84.45
-88.75
-88.17
-81.56
-68.96
-51.67
-31.90
-12.18
5.39
19.58
30.12
37.43
42.19
45.06
46.51
46.90
46.53
45.74
44.90
44.28
44.04
44.15
44.42
44.61
44.59
44.31
43.87
43.40
42.97
42.47
41.61
40.02
37.41
33.65
28.93
23.66
18.40
13.66
9.69
6.45
3.59
0.66
-2.73
-6.74
-11.28
-16.09
-20.84
-25.25
-29.19
-32.67
-35.83
-39.03
-42.67
-47.23
-53.09
-60.28
-68.29
-75.97
-81.69
-83.68
-80.56
-71.85
-58.13
-40.97
-22.51
-4.81
10.56
22.93
32.33
39.20
44.00
46.99
48.25
47.89
46.19
43.72
41.15
39.05
37.73
37.26
37.53
38.36
39.53
40.80
41.86
42.42
42.28
41.36
39.66
37.21
33.92
29.79
24.88
19.53
14.20
9.38
5.37
2.10
-0.71
-3.52
-6.65
-10.23
-14.23
-18.44
-22.58
-26.43
-29.86
-32.88
-35.67
-38.51
-41.75
-45.70
-50.65
-56.71
-63.64
-70.65
-76.37
-79.07
-77.15
-69.73
-57.06
-40.51
-22.22
-4.40
11.22
23.71
32.81
38.73
41.86
42.61
41.45
38.94
35.78
32.68
30.29
28.97
28.78
29.47
30.58
31.71
32.55
33.02
33.18
33.11
32.78
32.01
30.52
28.11
24.69
20.45
15.75
10.98
6.37
1.94
-2.51
-7.23
-12.33
-17.60
-22.59
-26.80
-29.90
-31.88
-33.09
-34.12
-35.58
-38.02
-41.92
-47.49
-54.57
-62.44
-69.69
-74.49
-75.00
-70.05
-59.58
-44.75
-27.54
-10.22
5.37
18.13
27.73
34.39
38.56
40.68
41.11
40.21
38.46
36.44
34.75
33.82
33.76
34.30
34.97
35.33
35.20
34.67
34.03
33.51
33.12
32.64
31.76
30.15
27.61
24.11
19.75
14.79
9.56
4.44
-0.28
-4.55
-8.56
-12.55
-16.73
-21.07
-25.35
-29.25
-32.63
-35.61
-38.51
-41.88
-46.24
-51.96
-59.08
-67.06
-74.70
-80.30
-82.02
-78.49
-69.33
-55.34
-38.31
-20.43
-3.67
10.73
22.25
31.03
37.41
41.72
44.07
44.58
43.49
41.24
38.50
35.93
34.03
32.97
32.60
32.73
33.16
33.80
34.65
35.63
36.50
36.88
36.37
34.69
31.79
27.87
23.28
18.49
13.86
9.60
5.69
1.90
-2.11
-6.51
-11.35
-16.37
-21.15
-25.28
-28.59
-31.20
-33.52
-36.18
-39.81
-44.91
-51.61
-59.51
-67.58
-74.27
-77.76
-76.53
-69.81
-57.93
-42.28
-24.88
-7.85
7.19
19.37
28.54
34.93
38.92
40.81
40.80
39.20
36.53
33.47
30.79
29.02
28.31
28.45
28.98
29.54
29.98
30.43
31.12
32.09
33.12
33.65
33.03
30.79
26.87
21.65
15.84
10.16
5.13
0.86
-2.86
-6.48
-10.39
-14.81
-19.65
-24.49
-28.83
-32.31
-34.94
-37.15
-39.72
-43.43
-48.77
-55.64
-63.20
-70.03
-74.35
-74.49
-69.40
-58.97
-44.14
-26.71
-8.81
7.58
21.15
31.29
37.92
41.32
41.84
39.96
36.44
32.24
28.41
25.83
24.89
25.44
26.93
28.80
30.64
32.32
33.85
35.19
36.10
36.14
34.93
32.28
28.32
23.46
18.24
13.22
8.67
4.62
0.84
-3.07
-7.46
-12.49
-18.01
-23.61
-28.80
-33.20
-36.68
-39.52
-42.22
-45.48
-49.93
-56.05
-63.81
-72.51
-80.71
-86.41
-87.57
-82.80
-71.89
-55.98
-37.16
-17.87
-0.19
14.58
26.00
34.22
39.68
42.92
44.42
44.68
44.18
43.41
42.73
42.37
42.36
42.56
42.74
42.74
42.54
42.21
41.95
41.84
41.85
41.70
41.02
39.49
36.87
33.14
28.46
23.18
17.72
12.52
7.89
3.97
0.61
-2.57
-6.01
-10.03
-14.70
-19.76
-24.77
-29.34
-33.22
-36.49
-39.50
-42.85
-47.18
-53.00
-60.50
-69.19
-77.86
-84.63
-87.46
-84.66
-75.56
-60.84
-42.28
-22.32
-3.31
12.98
25.60
34.37
39.66
42.20
42.86
42.52
41.90
41.50
41.57
42.11
43.03
44.06
44.90
45.17
44.62
43.36
41.75
40.40
39.79
39.96
40.41
40.31
38.88
35.80
31.22
25.65
19.78
14.14
9.00
4.46
0.40
-3.39
-7.12
-10.94
-14.82
-18.58
-22.05
-25.18
-28.15
-31.36
-35.24
-40.17
-46.35
-53.68
-61.62
-69.14
-74.70
-76.56
-73.41
-64.84
-51.62
-35.46
-18.46
-2.44
11.46
22.84
31.71
38.17
42.27
44.04
43.64
41.58
38.59
35.51
33.01
31.43
30.84
31.01
31.68
32.65
33.85
35.18
36.40
37.10
36.74
34.89
31.46
26.78
21.45
16.19
11.46
7.43
3.88
0.41
-3.40
-7.85
-12.95
-18.45
-23.90
-28.80
-32.73
-35.63
-37.83
-40.08
-43.30
-48.22
-55.11
-63.44
-71.84
-78.39
-81.09
-78.42
-69.86
-56.09
-38.81
-20.22
-2.48
12.85
24.97
33.79
39.67
43.15
44.68
44.69
43.55
41.71
39.71
38.12
37.32
37.41
38.21
39.29
40.22
40.76
40.87
40.64
40.14
39.32
37.93
35.68
32.38
28.07
22.96
17.44
11.93
6.75
1.97
-2.55
-7.11
-12.01
-17.30
-22.69
-27.64
-31.65
-34.64
-37.03
-39.71
-43.56
-49.24
-56.82
-65.84
-75.31
-83.79
-89.60
-91.04
-86.83
-76.65
-61.44
-43.15
-24.16
-6.60
8.32
20.35
29.88
37.46
43.46
48.02
51.12
52.74
52.98
52.12
50.59
48.84
47.39
46.60
46.56
47.10
47.92
48.67
49.10
49.04
48.33
46.86
44.51
41.28
37.29
32.79
28.04
23.32
18.82
14.63
10.83
7.30
3.86
0.20
-3.92
-8.62
-13.83
-19.25
-24.54
-29.41
-33.67
-37.32
-40.60
-44.00
-48.18
-53.84
-61.34
-70.54
-80.47
-89.52
-95.66
-96.97
-92.15
-80.96
-64.41
-44.55
-23.95
-4.97
10.81
22.93
31.78
38.20
42.97
46.52
48.92
50.12
50.31
49.77
48.94
48.22
47.79
47.63
47.67
47.81
48.02
48.28
48.55
48.72
48.56
47.69
45.75
42.55
38.22
33.19
28.09
23.43
19.38
15.79
12.34
8.70
4.85
0.96
-2.76
-6.22
-9.50
-12.92
-16.70
-20.90
-25.32
-29.58
-33.35
-36.51
-39.32
-42.55
-47.10
-53.70
-62.42
-72.44
-81.97
-88.81
-90.88
-86.90
-76.71
-61.34
-42.74
-23.25
-5.07
10.29
22.18
30.78
36.78
40.86
43.45
44.69
44.57
43.25
41.20
38.93
36.90
35.32
34.21
33.53
33.36
33.89
35.20
37.09
39.05
40.42
40.63
39.26
36.22
31.69
26.10
20.00
14.09
8.96
4.94
2.03
-0.13
-2.10
-4.44
-7.65
-12.00
-17.43
-23.55
-29.70
-35.10
-39.17
-41.76
-43.25
-44.54
-46.73
-50.78
-57.20
-65.80
-75.53
-84.55
-90.62
-91.60
-86.12
-74.10
-56.78
-36.39
-15.49
3.67
19.49
31.20
38.78
42.84
44.35
44.41
43.97
43.59
43.38
43.18
42.78
42.19
41.62
41.41
41.72
42.47
43.42
44.26
44.79
44.92
44.60
43.73
42.05
39.41
35.73
31.19
26.12
20.97
16.08
11.64
7.64
3.94
0.38
-3.21
-6.90
-10.76
-14.81
-19.10
-23.64
-28.39
-33.21
-37.86
-42.10
-45.80
-49.04
-52.21
-55.91
-60.82
-67.41
-75.57
-84.42
-92.25
-96.90
-96.31
-89.23
-75.75
-57.28
-36.22
-15.19
3.64
18.94
30.28
37.93
42.57
45.01
46.06
46.39
46.49
46.58
46.67
46.68
46.52
46.15
45.61
44.99
44.46
44.21
44.44
45.23
46.41
47.51
47.92
47.08
44.75
41.04
36.41
31.42
26.54
22.03
17.92
14.10
10.39
6.70
2.99
-0.70
-4.32
-7.85
-11.43
-15.26
-19.47
-24.08
-28.86
-33.47
-37.56
-40.97
-43.85
-46.61
-49.85
-54.25
-60.30
-68.09
-77.07
-85.93
-92.72
-95.30
-91.95
-81.98
-66.07
-46.10
-24.65
-4.21
13.37
27.15
37.06
43.55
47.30
48.86
48.74
47.41
45.34
43.06
41.08
39.72
39.07
38.97
39.11
39.25
39.35
39.54
40.05
40.87
41.75
42.15
41.50
39.42
35.89
31.24
25.96
20.57
15.45
10.84
6.84
3.40
0.35
-2.63
-5.90
-9.71
-14.11
-18.91
-23.72
-28.15
-31.88
-34.90
-37.45
-40.02
-43.28
-47.89
-54.27
-62.26
-70.99
-78.82
-83.69
-83.69
-77.63
-65.55
-48.70
-29.26
-9.65
8.03
22.48
33.17
40.24
44.15
45.45
44.70
42.48
39.45
36.27
33.55
31.74
31.01
31.22
31.98
32.84
33.43
33.64
33.54
33.35
33.13
32.70
31.67
29.58
26.15
21.48
16.00
10.30
4.87
-0.05
-4.58
-8.97
-13.47
-18.15
-22.91
-27.44
-31.47
-34.87
-37.84
-40.86
-44.58
-49.57
-56.14
-64.04
-72.44
-79.98
-84.97
-85.73
-81.15
-70.95
-55.98
-37.96
-19.08
-1.37
13.76
25.70
34.52
40.60
44.34
46.02
45.89
44.34
41.92
39.25
36.88
35.17
34.18
33.83
33.98
34.58
35.56
36.84
38.16
39.06
38.98
37.44
34.22
29.49
23.72
17.61
11.78
6.60
2.12
-1.92
-5.99
-10.55
-15.88
-21.97
-28.47
-34.79
-40.30
-44.57
-47.64
-50.10
-53.01
-57.48
-64.26
-73.16
-82.87
-91.09
-95.21
-93.07
-83.81
-68.10
-48.00
-26.27
-5.50
12.48
26.89
37.70
45.32
50.23
52.87
53.68
53.20
52.13
51.13
50.65
50.80
51.36
51.90
52.06
51.70
50.90
49.92
48.98
48.20
47.52
46.72
45.48
43.48
40.49
36.41
31.40
25.74
19.85
14.07
8.64
3.58
-1.22
-5.93
-10.75
-15.77
-21.01
-26.35
-31.56
-36.47
-40.96
-45.14
-49.27
-53.80
-59.20
-65.87
-73.86
-82.69
-91.15
-97.44
-99.54
-95.81
-85.64
-69.73
-49.93
-28.70
-8.31
9.63
24.41
35.96
44.55
50.52
54.19
55.90
56.10
55.32
54.09
52.85
51.87
51.26
51.02
51.13
51.57
52.29
53.19
54.01
54.42
54.04
52.59
50.05
46.62
42.68
38.56
34.46
30.36
26.11
21.57
16.66
11.54
6.46
1.65
-2.77
-6.89
-10.92
-15.10
-19.51
-24.07
-28.53
-32.67
-36.41
-39.96
-43.66
-47.95
-53.24
-59.78
-67.68
-76.67
-86.03
-94.35
-99.77
-100.27
-94.46
-82.08
-64.25
-43.21
-21.63
-1.77
14.97
28.20
38.15
45.34
50.15
52.86
53.71
53.00
51.20
48.92
46.77
45.27
44.70
45.09
46.17
47.51
48.64
49.22
49.16
48.54
47.51
46.13
44.24
41.65
38.20
33.89
28.95
23.71
18.51
13.53
8.84
4.39
0.05
-4.36
-8.98
-13.84
-18.81
-23.63
-27.98
-31.66
-34.72
-37.46
-40.38
-44.01
-48.87
-55.23
-63.06
-71.80
-80.22
-86.55
-88.79
-85.32
-75.54
-60.13
-40.97
-20.61
-1.44
14.90
27.70
37.08
43.54
47.57
49.49
49.52
47.92
45.16
41.87
38.73
36.26
34.67
33.93
33.90
34.39
35.31
36.59
38.14
39.72
40.94
41.28
40.19
37.31
32.62
26.50
19.65
12.92
7.03
2.32
-1.34
-4.48
-7.77
-11.79
-16.82
-22.69
-28.86
-34.70
-39.63
-43.47
-46.44
-49.15
-52.39
-56.89
-63.09
-71.00
-79.96
-88.64
-95.13
-97.33
-93.53
-83.04
-66.49
-45.81
-23.60
-2.46
15.68
29.88
40.07
46.75
50.61
52.33
52.49
51.61
50.19
48.66
47.38
46.57
46.29
46.44
46.81
47.19
47.42
47.49
47.53
47.66
47.90
47.97
47.41
45.73
42.62
38.17
32.80
27.07
21.40
16.00
10.84
5.88
1.12
-3.30
-7.28
-10.87
-14.35
-18.08
-22.41
-27.45
-33.02
-38.72
-44.07
-48.66
-52.37
-55.50
-58.72
-62.95
-69.02
-77.25
-87.13
-97.16
-105.06
-108.35
-105.03
-94.28
-76.78
-54.58
-30.45
-7.14
13.22
29.44
41.22
48.86
52.98
54.38
53.97
52.66
51.28
50.36
50.14
50.50
51.13
51.71
52.03
52.02
51.81
51.57
51.46
51.53
51.63
51.45
50.65
48.93
46.22
42.61
38.36
33.78
29.07
24.27
19.38
14.35
9.22
4.15
-0.62
-4.84
-8.45
-11.64
-14.78
-18.35
-22.63
-27.64
-33.02
-38.27
-42.93
-46.81
-50.11
-53.35
-57.25
-62.53
-69.64
-78.49
-88.14
-96.89
-102.43
-102.50
-95.64
-81.69
-62.04
-39.18
-16.00
4.98
22.18
35.08
43.90
49.30
51.97
52.47
51.30
49.01
46.21
43.54
41.57
40.60
40.67
41.52
42.80
44.16
45.31
46.09
46.40
46.17
45.33
43.80
41.48
38.34
34.36
29.64
24.37
18.89
13.60
8.93
5.08
1.95
-0.83
-3.81
-7.47
-12.06
-17.48
-23.35
-29.18
-34.49
-38.94
-42.44
-45.25
-47.91
-51.20
-55.93
-62.64
-71.20
-80.67
-89.26
-94.77
-95.13
-88.97
-76.12
-57.68
-35.81
-13.16
7.75
25.13
38.11
46.72
51.56
53.45
53.19
51.47
48.90
46.02
43.31
41.17
39.80
39.25
39.43
40.16
41.21
42.38
43.48
44.40
45.09
45.41
45.17
44.02
41.61
37.68
32.30
25.86
19.05
12.56
6.90
2.20
-1.75
-5.37
-9.13
-13.36
-18.20
-23.60
-29.32
-35.03
-40.40
-45.18
-49.35
-53.07
-56.76
-61.02
-66.54
-73.77
-82.69
-92.41
-101.11
-106.38
-105.80
-97.89
-82.65
-61.71
-37.86
-14.15
6.94
24.04
36.88
45.90
51.80
55.24
56.71
56.68
55.60
53.96
52.24
50.76
49.74
49.26
49.33
49.89
50.81
51.87
52.79
53.24
52.97
51.85
49.89
47.22
44.01
40.41
36.45
32.09
27.32
22.12
16.55
10.83
5.21
-0.06
-4.82
-9.04
-12.91
-16.69
-20.70
-25.10
-29.89
-34.91
-39.95
-44.84
-49.53
-54.08
-58.70
-63.82
-69.98
-77.55
-86.44
-95.67
-103.34
-106.99
-104.44
-94.58
-77.91
-56.36
-32.69
-9.62
10.79
27.46
40.06
48.84
54.33
57.12
57.85
57.13
55.51
53.59
51.89
50.87
50.73
51.38
52.42
53.42
54.03
54.14
53.89
53.41
52.71
51.70
50.20
48.10
45.36
42.02
38.10
33.63
28.64
23.26
17.69
12.19
6.96
2.21
-1.99
-5.76
-9.33
-13.09
-17.36
-22.25
-27.61
-33.00
-37.96
-42.28
-46.15
-50.13
-55.01
-61.43
-69.57
-78.92
-88.12
-95.24
-98.17
-95.24
-85.75
-70.26
-50.55
-28.98
-7.93
10.74
25.97
37.44
45.31
50.01
52.05
51.98
50.42
47.99
45.32
42.94
41.18
40.15
39.76
39.79
40.04
40.39
40.81
41.31
41.84
42.20
42.06
41.03
38.80
35.24
30.43
24.74
18.71
12.87
7.63
3.08
-1.04
-5.25
-10.04
-15.57
-21.52
-27.27
-32.14
-35.84
-38.57
-41.02
-44.02
-48.29
-54.18
-61.66
-70.31
-79.32
-87.40
-92.86
-93.96
-89.36
-78.72
-62.99
-44.13
-24.67
-6.82
7.93
19.01
26.52
30.85
32.41
31.47
28.41
23.78
18.41
13.25
9.17
6.68
5.87
6.51
8.28
10.92
14.34
18.53
23.38
28.60
33.70
38.08
41.21
42.83
42.95
41.89
40.12
38.06
35.87
33.44
30.38
26.24
20.74
13.94
6.26
-1.59
-8.93
-15.27
-20.48
-24.83
-29.03
-34.03
-40.73
-49.66
-60.52
-71.92
-81.60
-86.95
-85.86
-77.43
-62.31
-42.54
-20.87
0.00
18.05
32.24
42.46
49.19
53.14
55.01
55.37
54.61
53.14
51.36
49.68
48.46
47.91
47.99
48.49
49.13
49.67
50.04
50.21
50.17
49.82
48.99
47.46
45.10
41.88
37.85
33.13
27.90
22.38
16.76
11.23
5.97
1.10
-3.31
-7.24
-10.77
-14.13
-17.63
-21.58
-26.17
-31.38
-36.92
-42.36
-47.32
-51.62
-55.41
-59.18
-63.65
-69.55
-77.29
-86.65
-96.43
-104.56
-108.52
-106.14
-96.38
-79.80
-58.41
-35.05
-12.47
7.38
23.52
35.83
44.72
50.75
54.43
56.30
56.87
56.60
55.93
55.21
54.70
54.60
54.96
55.73
56.68
57.48
57.84
57.57
56.70
55.40
53.85
52.11
50.04
47.42
44.03
39.84
35.11
30.26
25.75
21.84
18.55
15.64
12.73
9.56
5.99
2.14
-1.74
-5.37
-8.62
-11.55
-14.43
-17.66
-21.58
-26.35
-31.80
-37.55
-43.11
-48.10
-52.38
-56.12
-59.72
-63.68
-68.54
-74.73
-82.53
-91.72
-101.47
-110.19
-115.72
-115.87
-109.13
-95.23
-75.42
-52.12
-28.18
-6.18
12.30
26.78
37.61
45.52
51.15
54.92
57.01
57.64
57.14
56.09
55.07
54.49
54.44
54.77
55.19
55.46
55.55
55.55
55.66
55.90
56.14
56.02
55.12
53.11
49.87
45.64
40.83
35.94
31.37
27.29
23.60
20.06
16.41
12.52
8.42
4.30
0.41
-3.08
-6.19
-9.08
-12.08
-15.52
-19.65
-24.50
-29.90
-35.52
-40.92
-45.77
-49.90
-53.44
-56.89
-60.95
-66.39
-73.71
-82.82
-92.86
-102.15
-108.46
-109.56
-103.88
-91.10
-72.23
-49.53
-25.75
-3.49
15.47
30.33
41.14
48.43
52.83
54.88
55.05
53.77
51.56
48.97
46.55
44.67
43.57
43.28
43.72
44.67
45.87
47.02
47.88
48.26
48.10
47.40
46.12
44.12
41.17
37.10
31.86
25.73
19.18
12.73
6.85
1.76
-2.46
-5.94
-8.91
-11.73
-14.75
-18.37
-22.75
-27.78
-33.11
-38.26
-42.83
-46.74
-50.15
-53.51
-57.43
-62.51
-69.02
-76.62
-84.13
-89.59
-90.76
-85.83
-74.19
-56.72
-35.55
-13.38
7.26
24.58
37.78
46.80
52.05
54.13
53.66
51.27
47.60
43.38
39.43
36.51
35.09
35.26
36.62
38.50
40.21
41.36
41.83
41.82
41.45
40.68
39.21
36.71
32.93
27.94
22.06
15.82
9.71
4.12
-0.85
-5.26
-9.39
-13.60
-18.16
-23.17
-28.52
-33.92
-38.99
-43.41
-47.10
-50.30
-53.58
-57.67
-63.30
-70.83
-80.05
-89.91
-98.61
-103.91
-103.70
-96.67
-82.78
-63.39
-40.85
-17.91
3.05
20.51
33.98
43.84
50.84
55.73
58.96
60.67
60.92
59.85
57.91
55.68
53.72
52.36
51.62
51.29
51.24
51.44
51.95
52.76
53.52
53.68
52.68
50.14
46.17
41.17
35.69
30.15
24.74
19.39
14.05
8.70
3.48
-1.41
-5.91
-10.10
-14.22
-18.53
-23.16
-27.99
-32.76
-37.22
-41.27
-45.07
-48.97
-53.48
-59.00
-65.91
-74.39
-84.29
-94.96
-105.02
-112.49
-115.10
-110.98
-99.34
-80.93
-57.84
-32.98
-9.25
11.21
27.37
39.33
47.85
53.91
58.27
61.31
63.10
63.63
63.07
61.71
60.02
58.41
57.10
56.22
55.83
55.95
56.60
57.68
58.94
59.93
60.16
59.22
56.88
53.18
48.36
42.93
37.48
32.56
28.50
25.29
22.55
19.73
16.33
12.10
7.17
1.97
-2.99
-7.27
-10.71
-13.45
-15.87
-18.54
-21.99
-26.55
-32.21
-38.64
-45.22
-51.31
-56.49
-60.70
-64.34
-68.15
-73.05
-79.78
-88.59
-98.93
-109.24
-117.19
-120.13
-115.95
-103.78
-84.36
-59.94
-33.61
-8.39
13.47
30.83
43.53
52.09
57.25
59.74
60.29
59.56
58.20
56.76
55.65
55.07
55.02
55.35
55.84
56.32
56.66
56.89
57.10
57.34
57.55
57.47
56.67
54.76
51.58
47.29
42.38
37.43
32.93
29.08
25.73
22.50
18.96
14.83
10.08
5.00
0.03
-4.37
-7.93
-10.68
-12.94
-15.26
-18.17
-22.05
-27.03
-32.92
-39.28
-45.52
-51.08
-55.62
-59.18
-62.29
-65.83
-70.73
-77.62
-86.31
-95.67
-103.58
-107.47
-105.02
-94.96
-77.57
-54.74
-29.44
-4.82
16.60
33.38
45.21
52.45
55.74
55.75
53.24
49.14
44.60
40.75
38.43
37.88
38.70
40.17
41.63
42.72
43.50
44.26
45.21
46.32
47.23
47.42
46.40
43.94
40.07
35.09
29.41
23.42
17.46
11.78
6.57
1.94
-2.05
-5.50
-8.64
-11.79
-15.31
-19.42
-24.15
-29.24
-34.32
-39.01
-43.09
-46.61
-49.89
-53.47
-58.03
-64.19
-72.21
-81.66
-91.23
-98.77
-101.81
-98.28
-87.37
-69.79
-47.61
-23.66
-0.64
19.39
35.32
46.84
54.13
57.68
58.14
56.28
53.00
49.21
45.72
43.12
41.68
41.38
41.97
43.10
44.44
45.77
46.90
47.67
47.93
47.50
46.25
44.15
41.26
37.69
33.56
29.00
24.06
18.81
13.36
7.86
2.48
-2.60
-7.24
-11.39
-15.18
-18.85
-22.72
-27.07
-32.00
-37.42
-43.02
-48.48
-53.53
-58.15
-62.59
-67.35
-73.08
-80.33
-89.18
-98.92
-107.90
-113.82
-114.33
-107.75
-93.73
-73.45
-49.28
-24.11
-0.59
19.45
35.16
46.57
54.15
58.51
60.20
59.79
57.90
55.27
52.75
51.07
50.62
51.35
52.84
54.51
55.89
56.72
57.00
56.81
56.23
55.23
53.72
51.59
48.84
45.53
41.81
37.86
33.82
29.63
25.09
20.00
14.30
8.22
2.29
-2.86
-6.84
-9.67
-11.83
-14.09
-17.15
-21.50
-27.21
-33.99
-41.30
-48.44
-54.78
-59.94
-63.95
-67.36
-71.16
-76.46
-84.10
-94.08
-105.33
-115.66
-122.28
-122.48
-114.55
-98.39
-75.64
-49.19
-22.39
1.90
21.91
37.07
47.73
54.72
58.95
61.19
62.08
62.17
61.93
61.74
61.83
62.23
62.78
63.20
63.28
62.98
62.47
62.10
62.15
62.67
63.34
63.51
62.52
59.89
55.64
50.26
44.51
39.08
34.34
30.24
26.42
22.38
17.84
12.80
7.59
2.66
-1.53
-4.91
-7.73
-10.51
-13.86
-18.23
-23.65
-29.79
-36.04
-41.79
-46.65
-50.70
-54.42
-58.63
-64.24
-71.90
-81.69
-92.81
-103.43
-111.00
-112.88
-107.09
-93.14
-72.29
-47.29
-21.59
1.67
20.45
34.16
43.35
49.18
52.78
54.87
55.78
55.60
54.54
52.93
51.18
49.64
48.52
47.86
47.65
47.91
48.68
49.88
51.31
52.60
53.37
53.22
51.81
48.93
44.50
38.66
31.82
24.67
17.92
12.15
7.57
4.01
1.07
-1.72
-4.82
-8.59
-13.25
-18.76
-24.79
-30.74
-35.96
-39.97
-42.77
-44.82
-46.90
-49.92
-54.69
-61.70
-70.87
-81.30
-91.22
-98.17
-99.62
-93.81
-80.39
-60.73
-37.48
-13.74
7.81
25.52
38.84
48.01
53.62
56.25
56.37
54.47
51.14
47.12
43.26
40.32
38.76
38.65
39.64
41.19
42.74
43.93
44.62
44.89
44.80
44.33
43.23
41.18
37.84
33.11
27.25
20.73
14.18
8.14
2.88
-1.64
-5.73
-9.80
-14.23
-19.19
-24.62
-30.27
-35.78
-40.79
-45.04
-48.45
-51.20
-53.83
-57.14
-62.10
-69.43
-79.21
-90.52
-101.34
-108.92
-110.60
-104.64
-90.88
-70.82
-47.15
-22.92
-0.70
17.94
32.45
43.06
50.42
55.18
57.93
59.09
59.09
58.35
57.23
56.09
55.20
54.68
54.51
54.49
54.34
53.89
53.13
52.23
51.40
50.69
49.93
48.73
46.69
43.60
39.43
34.35
28.55
22.30
15.88
9.64
4.03
-0.64
-4.30
-7.28
-10.16
-13.57
-17.90
-23.33
-29.65
-36.48
-43.32
-49.65
-55.07
-59.50
-63.32
-67.33
-72.60
-79.98
-89.58
-100.47
-110.60
-117.17
-117.43
-109.58
-93.41
-70.54
-43.97
-17.28
6.46
25.40
39.08
48.05
53.39
56.23
57.53
58.04
58.42
59.13
60.33
61.79
63.06
63.67
63.42
62.48
61.31
60.46
60.26
60.77
61.71
62.59
62.79
61.73
59.01
54.50
48.51
41.66
34.79
28.68
23.83
20.23
17.50
14.98
12.07
8.40
4.01
-0.74
-5.39
-9.59
-13.33
-16.92
-20.88
-25.61
-31.18
-37.24
-43.26
-48.67
-53.24
-57.11
-60.77
-64.87
-70.09
-76.94
-85.66
-95.93
-106.66
-115.92
-121.18
-120.01
-110.87
-93.86
-70.78
-44.72
-19.04
3.57
21.66
35.05
44.47
50.94
55.37
58.34
60.17
61.02
61.08
60.55
59.69
58.71
57.78
56.95
56.33
56.03
56.25
57.13
58.56
60.11
61.04
60.50
57.87
53.06
46.64
39.63
33.08
27.73
23.67
20.49
17.49
14.14
10.24
5.95
1.65
-2.34
-5.93
-9.34
-12.89
-16.89
-21.49
-26.49
-31.53
-36.20
-40.24
-43.71
-47.04
-50.93
-56.07
-62.92
-71.41
-80.81
-89.75
-96.34
-98.58
-94.82
-84.29
-67.55
-46.40
-23.52
-1.70
16.91
31.25
41.35
47.88
51.63
53.17
52.77
50.72
47.49
43.85
40.72
38.76
38.24
38.93
40.31
41.78
42.92
43.57
43.72
43.43
42.69
41.42
39.49
36.80
33.25
28.84
23.64
17.89
11.97
6.35
1.40
-2.69
-6.15
-9.44
-13.16
-17.68
-22.99
-28.65
-34.02
-38.57
-42.14
-45.05
-47.96
-51.64
-56.69
-63.43
-71.83
-81.40
-91.09
-99.26
-103.81
-102.74
-94.77
-79.92
-59.73
-36.80
-14.04
6.15
22.46
34.68
43.32
49.18
52.91
54.94
55.50
54.83
53.25
51.20
49.10
47.32
46.05
45.36
45.22
45.55
46.27
47.17
47.98
48.36
47.91
46.37
43.62
39.77
35.01
29.65
24.04
18.56
13.57
9.28
5.67
2.44
-0.93
-4.90
-9.74
-15.44
-21.74
-28.25
-34.62
-40.55
-45.83
-50.34
-54.15
-57.50
-60.93
-65.22
-71.22
-79.51
-89.96
-101.45
-111.84
-118.29
-118.16
-109.84
-93.46
-70.91
-45.30
-20.01
2.25
20.03
33.13
42.25
48.51
52.91
56.15
58.58
60.31
61.38
61.84
61.80
61.35
60.55
59.45
58.17
56.95
56.16
56.13
56.96
58.29
59.41
59.42
57.64
53.80
48.23
41.64
34.90
28.74
23.60
19.45
15.93
12.50
8.67
4.22
-0.68
-5.61
-10.09
-13.97
-17.48
-21.16
-25.59
-31.04
-37.33
-43.87
-50.00
-55.31
-59.80
-63.92
-68.39
-74.00
-81.37
-90.71
-101.46
-112.20
-120.71
-124.38
-121.00
-109.58
-90.73
-66.66
-40.48
-15.34
6.40
23.67
36.61
46.13
53.30
58.92
63.29
66.38
68.12
68.59
68.15
67.28
66.38
65.58
64.85
64.08
63.31
62.71
62.52
62.78
63.18
63.13
61.98
59.32
55.19
50.00
44.49
39.28
34.73
30.76
26.95
22.80
17.93
12.34
6.37
0.55
-4.61
-8.86
-12.23
-15.06
-17.87
-21.23
-25.54
-30.87
-36.96
-43.27
-49.21
-54.40
-58.91
-63.27
-68.34
-74.92
-83.38
-93.24
-103.04
-110.52
-113.14
-108.88
-96.97
-78.22
-54.92
-30.14
-6.73
13.31
29.16
40.96
49.31
54.80
57.92
58.93
58.17
56.09
53.32
50.54
48.36
47.10
46.81
47.24
47.97
48.68
49.17
49.42
49.49
49.34
48.76
47.37
44.72
40.56
34.90
28.11
20.84
13.77
7.42
2.03
-2.55
-6.73
-10.97
-15.53
-20.36
-25.16
-29.55
-33.31
-36.52
-39.50
-42.72
-46.66
-51.75
-58.36
-66.62
-76.20
-86.04
-94.34
-98.81
-97.35
-88.82
-73.47
-53.01
-30.06
-7.37
12.85
29.33
41.75
50.50
56.24
59.54
60.80
60.28
58.26
55.18
51.70
48.53
46.22
44.97
44.62
44.84
45.33
45.92
46.59
47.28
47.75
47.60
46.37
43.68
39.40
33.65
26.85
19.59
12.57
6.41
1.39
-2.62
-6.16
-9.97
-14.70
-20.56
-27.22
-34.04
-40.29
-45.47
-49.52
-52.82
-56.00
-59.79
-64.87
-71.79
-80.68
-91.18
-102.07
-111.34
-116.45
-114.96
-105.41
-87.91
-64.29
-37.63
-11.31
11.87
30.31
43.62
52.41
57.71
60.59
61.96
62.45
62.41
62.02
61.39
60.54
59.54
58.44
57.32
56.24
55.30
54.69
54.67
55.35
56.54
57.66
57.79
56.15
52.33
46.61
39.71
32.55
25.79
19.64
13.97
8.54
3.25
-1.73
-6.13
-9.79
-12.83
-15.73
-19.12
-23.54
-29.16
-35.70
-42.47
-48.71
-53.89
-57.97
-61.43
-65.18
-70.20
-77.29
-86.70
-97.91
-109.49
-119.19
-124.35
-122.61
-112.68
-94.86
-70.99
-44.06
-17.26
6.71
26.24
40.84
50.91
57.33
61.13
63.22
64.30
64.80
64.92
64.72
64.23
63.48
62.55
61.54
60.55
59.74
59.34
59.51
60.23
61.21
61.81
61.32
59.17
55.27
49.96
43.93
37.87
32.22
27.11
22.32
17.57
12.60
7.34
1.96
-3.27
-8.08
-12.39
-16.38
-20.45
-24.98
-30.10
-35.56
-40.88
-45.64
-49.71
-53.42
-57.45
-62.55
-69.26
-77.78
-87.80
-98.32
-107.58
-113.29
-113.09
-105.37
-89.91
-68.21
-43.07
-17.71
5.11
23.82
38.01
48.09
54.77
58.65
60.16
59.62
57.46
54.26
50.73
47.54
45.21
43.98
43.85
44.54
45.78
47.25
48.69
49.84
50.45
50.25
48.95
46.37
42.43
37.23
31.05
24.29
17.48
11.15
5.69
1.19
-2.57
-6.11
-9.99
-14.63
-20.14
-26.23
-32.38
-38.00
-42.64
-46.14
-48.76
-51.16
-54.28
-59.09
-66.26
-75.80
-86.76
-97.18
-104.42
-105.84
-99.58
-85.25
-64.17
-39.03
-13.12
10.52
29.86
44.07
53.31
58.29
59.90
58.95
56.27
52.71
49.15
46.32
44.64
44.08
44.29
44.80
45.17
45.24
45.06
44.79
44.62
44.57
44.51
44.07
42.78
40.17
35.92
30.03
22.85
15.05
7.43
0.66
-4.85
-9.12
-12.57
-15.90
-19.81
-24.78
-30.85
-37.57
-44.22
-50.15
-55.02
-59.02
-62.75
-67.06
-72.79
-80.40
-89.74
-99.78
-108.58
-113.65
-112.59
-103.89
-87.59
-65.33
-39.81
-14.05
9.43
29.04
44.16
54.80
61.37
64.53
65.10
64.01
62.21
60.42
59.13
58.48
58.36
58.53
58.76
58.88
58.86
58.79
58.81
58.94
59.00
58.60
57.35
54.95
51.35
46.76
41.55
36.06
30.56
25.14
19.82
14.53
9.23
3.91
-1.26
-6.09
-10.39
-14.18
-17.74
-21.56
-26.14
-31.69
-38.07
-44.76
-51.16
-56.81
-61.61
-65.82
-70.05
-75.11
-81.77
-90.48
-100.89
-111.62
-120.22
-123.77
-119.78
-107.13
-86.54
-60.50
-32.43
-5.70
17.22
35.20
48.20
56.94
62.38
65.40
66.72
66.96
66.76
66.63
66.88
67.46
68.03
68.06
67.22
65.60
63.62
61.93
61.02
60.98
61.47
61.85
61.44
59.70
56.40
51.67
45.94
39.79
33.79
28.32
23.42
18.85
14.37
9.87
5.48
1.43
-2.08
-5.13
-8.07
-11.39
-15.49
-20.57
-26.50
-32.86
-39.06
-44.49
-48.81
-52.06
-54.71
-57.68
-61.97
-68.42
-77.38
-88.41
-100.11
-110.23
-115.97
-114.79
-105.13
-87.21
-63.07
-36.06
-9.82
12.74
30.15
42.29
49.99
54.32
56.33
56.74
56.06
54.64
52.79
50.70
48.54
46.51
44.82
43.67
43.17
43.33
44.12
45.37
46.86
48.22
48.95
48.45
46.30
42.35
36.79
30.12
23.00
16.05
9.84
4.78
1.00
-1.70
-3.90
-6.44
-10.01
-14.93
-20.95
-27.37
-33.39
-38.43
-42.29
-45.19
-47.67
-50.44
-54.31
-59.99
-67.85
-77.52
-87.64
-96.00
-99.98
-97.40
-87.17
-69.78
-47.21
-22.38
1.65
22.40
38.43
49.42
55.86
58.65
58.75
56.95
54.02
50.67
47.59
45.36
44.24
44.13
44.63
45.24
45.59
45.55
45.18
44.63
44.04
43.44
42.74
41.70
39.98
37.19
33.06
27.59
21.11
14.20
7.48
1.44
-3.69
-7.95
-11.59
-15.02
-18.63
-22.75
-27.52
-32.82
-38.33
-43.58
-48.24
-52.23
-55.82
-59.52
-64.09
-70.18
-78.11
-87.51
-97.03
-104.45
-107.19
-103.11
-91.37
-72.87
-49.96
-25.75
-3.08
16.16
31.19
42.13
49.50
53.87
55.64
55.23
53.15
50.06
46.82
44.23
42.82
42.65
43.35
44.29
44.90
44.89
44.36
43.67
43.13
42.81
42.47
41.65
39.79
36.47
31.59
25.33
18.22
10.99
4.36
-1.22
-5.73
-9.61
-13.51
-18.01
-23.29
-29.09
-34.86
-40.03
-44.35
-47.95
-51.41
-55.46
-60.88
-68.17
-77.27
-87.40
-96.99
-103.88
-105.77
-100.93
-88.77
-70.19
-47.38
-23.25
-0.63
18.48
33.23
43.80
50.93
55.46
57.99
58.81
58.13
56.24
53.70
51.13
49.14
48.06
47.89
48.42
49.31
50.22
50.90
51.16
50.90
50.01
48.41
46.00
42.70
38.44
33.32
27.56
21.52
15.57
9.99
4.91
0.24
-4.21
-8.67
-13.35
-18.40
-23.86
-29.55
-35.21
-40.51
-45.23
-49.40
-53.35
-57.62
-62.83
-69.49
-77.89
-87.86
-98.60
-108.52
-115.34
-116.63
-110.53
-96.59
-76.04
-51.57
-26.44
-3.50
15.52
30.20
41.05
49.05
55.04
59.55
62.74
64.64
65.29
64.86
63.70
62.29
61.01
60.13
59.69
59.64
59.90
60.39
61.04
61.62
61.70
60.76
58.36
54.42
49.21
43.33
37.37
31.78
26.71
22.04
17.54
12.95
8.14
3.10
-2.03
-7.11
-12.01
-16.75
-21.47
-26.30
-31.30
-36.36
-41.29
-45.88
-50.10
-54.18
-58.55
-63.82
-70.57
-79.13
-89.25
-99.84
-108.89
-113.84
-112.27
-102.81
-85.73
-63.02
-37.83
-13.45
7.65
24.31
36.50
44.98
50.59
54.01
55.67
55.96
55.35
54.36
53.43
52.82
52.56
52.48
52.44
52.41
52.50
52.79
53.25
53.69
53.76
53.10
51.43
48.58
44.51
39.31
33.23
26.61
19.96
13.77
8.39
3.95
0.25
-3.13
-6.70
-10.88
-15.86
-21.50
-27.39
-32.92
-37.54
-41.03
-43.69
-46.32
-49.99
-55.70
-63.92
-74.32
-85.73
-96.17
-103.25
-104.66
-98.83
-85.45
-65.70
-42.04
-17.55
4.89
23.35
37.12
46.55
52.56
56.13
58.00
58.68
58.47
57.68
56.60
55.50
54.52
53.71
53.01
52.40
51.92
51.66
51.79
52.30
52.98
53.36
52.89
51.09
47.79
43.20
37.84
32.31
27.06
22.25
17.84
13.61
9.38
5.05
0.64
-3.74
-7.91
-11.69
-15.11
-18.40
-21.97
-26.24
-31.37
-37.06
-42.76
-47.86
-52.12
-55.82
-59.66
-64.50
-71.00
-79.45
-89.51
-100.23
-109.82
-115.95
-116.23
-108.98
-93.94
-72.62
-47.88
-23.02
-0.76
17.43
31.38
41.73
49.40
55.05
59.05
61.57
62.77
62.87
62.19
61.05
59.67
58.20
56.76
55.43
54.42
53.93
54.09
54.81
55.77
56.33
55.85
53.84
50.22
45.33
39.81
34.36
29.52
25.52
22.22
19.24
16.11
12.46
8.14
3.31
-1.69
-6.42
-10.56
-14.03
-17.03
-19.95
-23.24
-27.20
-31.89
-37.06
-42.27
-47.12
-51.40
-55.28
-59.30
-64.22
-70.70
-78.90
-88.23
-97.19
-103.54
-104.94
-99.69
-87.30
-68.80
-46.52
-23.30
-1.76
16.43
30.64
41.01
48.02
52.08
53.49
52.55
49.84
46.15
42.41
39.39
37.53
36.92
37.41
38.73
40.54
42.54
44.40
45.76
46.32
45.86
44.34
41.80
38.36
34.23
29.59
24.63
19.49
14.31
9.21
4.29
-0.35
-4.66
-8.77
-12.88
-17.26
-22.02
-27.02
-31.96
-36.46
-40.39
-43.82
-47.08
-50.56
-54.66
-59.76
-66.19
-74.21
-83.62
-93.44
-101.79
-106.23
-104.45
-95.18
-78.79
-57.22
-33.40
-10.30
9.87
26.01
38.09
46.66
52.42
55.92
57.48
57.33
55.83
53.53
51.05
49.01
47.75
47.32
47.51
48.04
48.66
49.28
49.87
50.38
50.63
50.27
48.94
46.40
42.61
37.78
32.26
26.43
20.58
14.89
9.51
4.50
-0.07
-4.18
-7.94
-11.56
-15.38
-19.66
-24.47
-29.63
-34.84
-39.78
-44.34
-48.62
-52.89
-57.46
-62.63
-68.75
-76.14
-84.96
-94.88
-104.73
-112.51
-115.74
-112.25
-100.98
-82.55
-59.06
-33.48
-8.77
12.90
30.36
43.39
52.36
57.90
60.77
61.72
61.45
60.58
59.56
58.67
58.00
57.53
57.19
56.98
56.98
57.29
58.02
59.11
60.36
61.34
61.45
60.15
57.20
52.73
47.32
41.71
36.48
31.82
27.43
22.84
17.68
11.95
6.03
0.49
-4.26
-8.16
-11.49
-14.62
-17.90
-21.52
-25.48
-29.80
-34.45
-39.39
-44.46
-49.40
-54.03
-58.46
-63.21
-69.19
-77.21
-87.33
-98.35
-107.84
-112.64
-110.07
-98.91
-79.97
-55.79
-29.78
-5.13
15.95
32.43
44.26
51.91
56.04
57.30
56.38
54.00
50.89
47.74
45.10
43.35
42.51
42.32
42.42
42.49
42.43
42.41
42.71
43.46
44.47
45.23
45.06
43.43
40.04
35.00
28.72
21.80
14.93
8.72
3.53
-0.68
-4.29
-7.94
-12.18
-17.26
-23.12
-29.36
-35.45
-40.91
-45.45
-49.06
-52.09
-55.22
-59.34
-65.29
-73.30
-82.71
-91.85
-98.24
-99.36
-93.42
-80.04
-60.33
-36.73
-12.20
10.51
29.51
43.97
53.96
60.05
62.94
63.27
61.58
58.56
54.99
51.71
49.37
48.24
48.09
48.38
48.61
48.55
48.32
48.23
48.48
48.96
49.25
48.81
47.23
44.42
40.61
36.17
31.43
26.48
21.29
15.72
9.82
3.79
-1.98
-7.13
-11.50
-15.18
-18.56
-22.15
-26.38
-31.40
-37.10
-43.07
-48.85
-54.09
-58.74
-63.14
-67.93
-73.86
-81.46
-90.70
-100.69
-109.70
-115.40
-115.39
-107.99
-92.80
-70.97
-45.03
-18.21
6.41
26.71
41.79
51.92
57.99
61.08
62.05
61.58
60.18
58.41
56.76
55.62
55.10
55.03
55.09
55.04
54.82
54.55
54.42
54.55
54.80
54.88
54.35
52.85
50.22
46.54
42.09
37.19
32.02
26.63
21.00
15.18
9.40
4.05
-0.54
-4.27
-7.40
-10.46
-14.07
-18.60
-24.09
-30.19
-36.34
-41.96
-46.67
-50.44
-53.61
-56.89
-61.12
-67.09
-75.12
-84.74
-94.58
-102.42
-105.70
-102.27
-91.12
-72.80
-49.36
-23.82
0.69
21.72
37.92
49.09
55.76
58.76
58.92
56.98
53.62
49.60
45.73
42.72
41.02
40.68
41.36
42.50
43.49
43.94
43.74
43.05
42.17
41.35
40.60
39.67
38.03
35.18
30.81
25.04
18.33
11.38
4.84
-0.97
-6.09
-10.81
-15.47
-20.30
-25.17
-29.73
-33.58
-36.47
-38.60
-40.56
-43.19
-47.25
-53.28
-61.31
-70.86
-80.81
-89.53
-95.02
-95.26
-88.85
-75.57
-56.65
-34.44
-11.80
8.78
25.79
38.75
47.95
53.93
57.19
58.01
56.69
53.57
49.25
44.51
40.16
36.91
35.15
34.90
35.80
37.33
38.99
40.48
41.73
42.59
42.76
41.73
39.00
34.32
27.99
20.80
13.74
7.65
2.87
-0.84
-4.21
-8.14
-13.36
-20.07
-27.87
-35.89
-43.11
-48.79
-52.78
-55.56
-58.06
-61.37
-66.41
-73.73
-83.18
-93.71
-103.23
-109.02
-108.34
-99.50
-82.59
-59.58
-33.70
-8.37
13.82
31.50
44.45
53.13
58.28
60.62
60.90
59.87
58.27
56.65
55.32
54.40
53.82
53.38
52.89
52.22
51.40
50.63
50.20
50.30
50.83
51.36
51.28
50.04
47.35
43.16
37.60
30.94
23.54
15.92
8.79
2.76
-1.85
-5.22
-8.02
-11.10
-15.12
-20.42
-26.84
-33.87
-40.87
-47.25
-52.64
-57.01
-60.73
-64.48
-69.20
-75.70
-84.35
-94.74
-105.41
-113.96
-117.51
-113.58
-100.93
-80.19
-53.85
-25.50
1.20
23.58
40.43
51.77
58.44
61.49
62.00
60.94
59.31
58.04
57.76
58.66
60.42
62.38
63.85
64.30
63.57
61.92
59.91
58.16
57.16
56.97
57.18
57.06
55.89
53.21
49.09
43.89
38.09
32.08
26.08
20.14
14.38
8.99
4.18
0.13
-3.16
-5.89
-8.44
-11.42
-15.42
-20.80
-27.46
-34.85
-42.01
-48.05
-52.51
-55.54
-57.86
-60.51
-64.53
-70.77
-79.53
-90.28
-101.37
-110.22
-113.76
-109.52
-96.49
-75.69
-49.91
-22.78
2.36
23.15
38.52
48.57
54.04
56.02
55.62
53.90
51.71
49.61
47.95
46.82
46.26
46.08
46.07
45.99
45.73
45.36
45.15
45.36
46.05
46.96
47.48
46.98
44.94
41.10
35.53
28.62
21.02
13.48
6.75
1.33
-2.74
-5.87
-8.80
-12.24
-16.51
-21.56
-27.01
-32.37
-37.28
-41.63
-45.48
-49.09
-52.84
-57.23
-62.78
-69.84
-78.25
-87.13
-94.71
-98.67
-96.72
-87.44
-70.87
-48.73
-23.91
0.37
21.48
37.96
49.59
56.87
60.58
61.39
59.84
56.54
52.31
48.11
44.83
43.00
42.59
43.20
44.26
45.21
45.76
45.85
45.60
45.14
44.56
43.83
42.76
41.01
38.28
34.35
29.24
23.14
16.47
9.69
3.25
-2.52
-7.43
-11.57
-15.28
-19.03
-23.30
-28.29
-33.85
-39.58
-45.02
-49.92
-54.29
-58.47
-62.97
-68.38
-75.20
-83.62
-93.20
-102.67
-109.90
-112.40
-108.06
-95.94
-76.73
-52.62
-26.61
-1.70
19.81
36.68
48.67
56.26
60.32
61.79
61.55
60.29
58.57
56.80
55.29
54.27
53.79
53.78
54.04
54.41
54.80
55.18
55.52
55.70
55.47
54.52
52.62
49.70
45.90
41.50
36.80
32.06
27.40
22.72
17.87
12.72
7.26
1.75
-3.42
-7.97
-11.84
-15.36
-19.03
-23.30
-28.31
-33.82
-39.36
-44.50
-49.06
-53.22
-57.48
-62.53
-68.97
-77.16
-86.77
-96.62
-104.63
-108.30
-105.41
-94.81
-77.00
-54.00
-28.73
-4.22
17.21
34.25
46.60
54.59
58.86
60.09
58.96
56.18
52.45
48.54
45.15
42.79
41.68
41.73
42.57
43.72
44.79
45.53
45.89
45.89
45.54
44.70
43.16
40.67
37.09
32.46
27.00
21.12
15.30
9.95
5.24
1.03
-3.05
-7.47
-12.52
-18.11
-23.85
-29.15
-33.52
-36.81
-39.30
-41.62
-44.55
-48.82
-54.98
-63.15
-72.83
-82.82
-91.21
-95.72
-94.32
-85.86
-70.54
-50.01
-26.88
-4.01
16.27
32.56
44.50
52.35
56.63
57.86
56.51
53.14
48.52
43.60
39.34
36.47
35.22
35.35
36.31
37.51
38.51
39.16
39.55
39.76
39.79
39.39
38.16
35.66
31.64
26.22
19.84
13.19
6.97
1.62
-2.84
-6.78
-10.79
-15.43
-20.96
-27.24
-33.76
-39.89
-45.09
-49.15
-52.32
-55.26
-58.86
-64.01
-71.32
-80.75
-91.29
-100.99
-107.27
-107.60
-100.31
-85.31
-64.20
-39.79
-15.25
6.75
24.67
38.10
47.45
53.45
56.82
58.16
57.93
56.64
54.84
53.07
51.71
50.97
50.76
50.89
51.13
51.30
51.38
51.40
51.41
51.37
51.08
50.20
48.42
45.40
40.99
35.22
28.41
21.07
13.87
7.38
1.98
-2.39
-6.12
-9.82
-14.07
-19.16
-25.01
-31.23
-37.32
-42.95
-47.98
-52.59
-57.06
-61.81
-67.33
-74.06
-82.18
-91.30
-100.19
-106.78
-108.67
-103.84
-91.48
-72.44
-48.92
-23.92
-0.27
19.95
35.77
47.15
54.64
58.99
60.88
60.87
59.48
57.24
54.78
52.69
51.40
51.05
51.41
52.07
52.64
52.87
52.74
52.36
51.82
51.10
50.03
48.44
46.19
43.22
39.59
35.37
30.61
25.36
19.75
13.96
8.27
2.94
-1.85
-6.14
-10.13
-14.19
-18.60
-23.49
-28.74
-34.06
-39.14
-43.79
-48.04
-52.16
-56.58
-61.84
-68.49
-76.85
-86.67
-96.90
-105.55
-110.11
-108.21
-98.49
-81.25
-58.41
-33.04
-8.35
13.14
30.13
42.52
50.94
56.21
59.02
59.78
58.81
56.59
53.76
51.06
49.05
48.01
47.85
48.27
48.98
49.78
50.66
51.56
52.31
52.60
52.04
50.32
47.40
43.51
39.02
34.33
29.68
25.05
20.23
15.00
9.33
3.46
-2.17
-7.12
-11.26
-14.89
-18.55
-22.73
-27.65
-33.09
-38.51
-43.45
-47.68
-51.41
-55.12
-59.48
-65.07
-72.24
-80.82
-89.98
-98.13
-103.06
-102.58
-95.15
-80.55
-60.08
-36.21
-11.81
10.58
29.26
43.52
53.42
59.40
62.06
61.96
59.78
56.27
52.25
48.54
45.87
44.62
44.81
46.12
48.00
49.84
51.21
51.86
51.75
50.94
49.53
47.60
45.23
42.48
39.36
35.79
31.69
27.00
21.81
16.30
10.72
5.34
0.35
-4.24
-8.44
-12.42
-16.32
-20.29
-24.43
-28.73
-33.05
-37.28
-41.31
-45.23
-49.39
-54.28
-60.40
-68.03
-76.91
-85.99
-93.52
-97.27
-95.18
-86.14
-70.43
-49.76
-26.78
-4.31
15.50
31.42
43.13
50.85
54.95
55.86
54.06
50.22
45.26
40.22
36.00
33.16
31.86
31.85
32.68
33.91
35.28
36.66
38.00
39.18
39.84
39.51
37.70
34.18
29.15
23.17
17.03
11.42
6.67
2.64
-1.16
-5.36
-10.41
-16.33
-22.69
-28.80
-33.90
-37.59
-39.96
-41.60
-43.47
-46.58
-51.71
-59.03
-67.93
-76.85
-83.65
-85.98
-82.13
-71.51
-55.01
-34.65
-13.08
7.21
24.42
37.57
46.42
51.18
52.34
50.56
46.66
41.63
36.41
31.80
28.26
25.99
24.89
24.72
25.18
25.97
26.80
27.42
27.65
27.36
26.44
24.73
22.16
18.61
14.06
8.60
2.36
-4.44
-11.51
-18.55
-25.14
-30.94
-35.75
-39.68
-43.13
-46.72
-51.09
-56.76
-64.00
-72.60
-81.71
-89.74
-94.50
-93.76
-86.03
-71.28
-51.13
-28.43
-6.30
12.86
27.88
38.77
46.20
50.91
53.46
54.20
53.47
51.73
49.51
47.25
45.20
43.38
41.76
40.31
39.08
38.17
37.64
37.36
37.06
36.29
34.56
31.52
27.09
21.41
14.88
7.96
0.99
-5.93
-12.89
-20.07
-27.63
-35.53
-43.48
-51.09
-58.00
-64.11
-69.68
-75.32
-81.85
-90.03
-100.12
-111.60
-122.95
-131.81
-135.53
-131.95
-120.13
-100.78
-76.10
-49.06
-22.49
1.63
22.42
39.92
54.56
66.68
76.37
83.58
88.37
91.05
92.17
92.31
91.88
90.95
89.44
87.25
84.44
81.36
78.46
76.12
74.39
72.92
71.01
67.86
63.00
56.38
48.49
40.16
32.23
25.26
19.36
14.21
9.19
3.71
-2.66
-10.01
-18.03
-26.15
-33.59
-39.69
-44.16
-47.33
-50.08
-53.70
-59.48
-68.16
-79.44
-91.81
-102.63
-108.78
-107.49
-97.39
-79.01
-54.78
-28.27
-3.14
17.95
33.86
44.82
51.78
55.86
57.83
58.23
57.54
56.30
55.10
54.38
54.19
54.25
54.07
53.28
51.83
50.03
48.36
47.31
47.08
47.39
47.53
46.64
43.93
39.12
32.50
24.93
17.43
10.80
5.32
0.73
-3.55
-8.11
-13.24
-18.84
-24.53
-29.85
-34.45
-38.25
-41.46
-44.59
-48.39
-53.65
-60.89
-70.06
-80.16
-89.30
-94.96
-94.73
-87.18
-72.37
-52.00
-28.87
-6.04
14.10
30.25
42.16
50.25
55.08
57.12
56.73
54.40
50.84
46.97
43.67
41.47
40.45
40.26
40.41
40.53
40.48
40.39
40.47
40.75
40.94
40.48
38.69
35.11
29.73
22.98
15.67
8.63
2.43
-2.81
-7.41
-11.96
-17.01
-22.80
-29.15
-35.51
-41.19
-45.70
-49.01
-51.65
-54.61
-59.07
-65.91
-75.32
-86.43
-97.29
-105.22
-107.50
-102.22
-88.95
-68.99
-45.00
-20.19
2.55
21.40
35.71
45.80
52.48
56.62
58.91
59.88
59.93
59.46
58.78
58.15
57.65
57.20
56.65
55.82
54.60
53.06
51.45
50.05
49.09
48.57
48.12
47.10
44.81
40.77
34.94
27.75
20.00
12.53
5.90
0.40
-4.06
-7.82
-11.38
-15.25
-19.85
-25.42
-31.83
-38.65
-45.25
-51.11
-56.05
-60.26
-64.37
-69.23
-75.67
-84.09
-94.19
-104.58
-112.95
-116.52
-112.95
-101.17
-82.00
-57.85
-31.96
-7.44
13.63
30.37
42.95
52.06
58.46
62.72
65.26
66.35
66.23
65.25
63.75
62.09
60.56
59.29
58.24
57.30
56.37
55.46
54.66
53.98
53.29
52.26
50.45
47.56
43.50
38.44
32.70
26.67
20.62
14.75
9.16
3.96
-0.83
-5.26
-9.55
-14.02
-19.01
-24.61
-30.62
-36.57
-41.91
-46.27
-49.75
-52.89
-56.50
-61.35
-67.93
-76.30
-85.91
-95.53
-103.26
-106.78
-103.94
-93.51
-75.79
-52.75
-27.51
-3.38
17.12
32.88
44.06
51.49
56.04
58.22
58.28
56.43
53.24
49.52
46.18
43.87
42.78
42.61
42.82
42.92
42.67
42.20
41.73
41.42
41.14
40.43
38.66
35.39
30.52
24.42
17.81
11.43
5.79
0.95
-3.46
-8.00
-13.20
-19.21
-25.75
-32.15
-37.65
-41.78
-44.60
-46.77
-49.36
-53.51
-60.02
-68.97
-79.63
-90.38
-98.91
-102.68
-99.59
-88.70
-70.69
-47.73
-22.93
0.57
20.53
35.93
46.89
54.14
58.48
60.56
60.81
59.63
57.53
55.07
52.79
51.06
49.98
49.40
49.02
48.53
47.78
46.91
46.16
45.77
45.67
45.39
44.17
41.24
36.19
29.22
21.09
12.82
5.37
-0.73
-5.50
-9.43
-13.29
-17.75
-23.20
-29.58
-36.42
-43.04
-48.85
-53.58
-57.48
-61.20
-65.66
-71.72
-79.93
-90.14
-101.30
-111.45
-118.03
-118.53
-111.25
-95.96
-74.12
-48.47
-22.26
1.67
21.53
36.81
47.92
55.76
61.19
64.79
66.85
67.52
67.04
65.77
64.13
62.51
61.13
60.03
59.15
58.46
57.95
57.64
57.46
57.21
56.51
54.96
52.28
48.42
43.48
37.74
31.52
25.15
18.94
13.11
7.80
2.97
-1.60
-6.20
-11.18
-16.74
-22.85
-29.26
-35.54
-41.26
-46.13
-50.14
-53.62
-57.15
-61.46
-67.23
-74.92
-84.53
-95.37
-105.94
-114.02
-117.04
-112.81
-100.30
-80.15
-54.66
-27.11
-0.84
21.72
39.41
52.24
60.85
66.00
68.31
68.27
66.49
63.67
60.64
58.10
56.46
55.78
55.78
56.03
56.13
55.84
55.10
54.08
52.99
52.01
51.02
49.62
47.27
43.49
38.18
31.66
24.61
17.79
11.70
6.44
1.72
-2.97
-8.06
-13.74
-19.81
-25.86
-31.38
-36.01
-39.65
-42.54
-45.19
-48.25
-52.39
-58.17
-65.88
-75.29
-85.41
-94.47
-100.14
-100.04
-92.60
-77.61
-56.44
-31.76
-6.71
15.91
34.28
47.65
56.20
60.56
61.45
59.60
55.74
50.74
45.57
41.19
38.26
37.01
37.08
37.80
38.50
38.76
38.54
38.11
37.79
37.64
37.39
36.50
34.30
30.40
24.81
18.05
10.92
4.25
-1.49
-6.29
-10.64
-15.23
-20.56
-26.69
-33.19
-39.31
-44.37
-48.15
-50.93
-53.48
-56.80
-61.82
-69.09
-78.49
-89.05
-98.89
-105.56
-106.59
-100.22
-86.12
-65.54
-41.00
-15.62
7.81
27.40
42.40
52.99
59.81
63.57
64.83
64.03
61.69
58.47
55.22
52.66
51.24
50.90
51.18
51.47
51.31
50.63
49.63
48.61
47.77
47.09
46.27
44.90
42.52
38.76
33.42
26.62
18.85
10.84
3.41
-2.90
-7.98
-12.07
-15.69
-19.34
-23.46
-28.28
-33.84
-39.96
-46.30
-52.38
-57.76
-62.30
-66.33
-70.60
-76.06
-83.49
-92.98
-103.53
-113.07
-118.82
-118.05
-109.05
-91.78
-68.07
-41.03
-14.09
10.00
29.71
44.76
55.61
62.91
67.26
69.14
69.08
67.75
65.89
64.10
62.72
61.77
61.04
60.33
59.49
58.61
57.91
57.60
57.80
58.29
58.55
57.83
55.49
51.28
45.50
38.96
32.64
27.25
23.00
19.48
16.00
11.93
7.02
1.46
-4.24
-9.57
-14.24
-18.33
-22.15
-26.10
-30.47
-35.32
-40.48
-45.62
-50.45
-54.83
-58.83
-62.81
-67.37
-73.22
-80.93
-90.62
-101.48
-111.67
-118.51
-119.14
-111.51
-95.22
-71.78
-44.27
-16.37
8.76
29.17
44.28
54.56
60.86
64.00
64.61
63.22
60.42
56.93
53.53
50.84
49.16
48.48
48.51
48.96
49.64
50.50
51.48
52.50
53.27
53.44
52.66
50.67
47.45
43.12
37.93
32.17
26.16
20.16
14.34
8.80
3.54
-1.40
-5.96
-10.08
-13.78
-17.27
-20.91
-25.06
-29.88
-35.25
-40.73
-45.86
-50.38
-54.31
-57.99
-62.02
-67.11
-73.84
-82.42
-92.31
-101.99
-108.99
-110.57
-104.51
-90.07
-68.35
-42.05
-14.66
10.62
31.56
47.18
57.54
63.26
65.21
64.27
61.35
57.36
53.21
49.69
47.34
46.30
46.37
47.12
48.10
49.00
49.79
50.57
51.41
52.16
52.47
51.82
49.81
46.36
41.78
36.60
31.34
26.33
21.53
16.72
11.65
6.25
0.73
-4.48
-9.00
-12.65
-15.56
-18.22
-21.24
-25.18
-30.36
-36.67
-43.63
-50.52
-56.61
-61.45
-65.08
-68.11
-71.55
-76.50
-83.76
-93.39
-104.46
-114.94
-122.10
-123.14
-116.00
-100.18
-76.98
-49.23
-20.42
6.20
28.49
45.56
57.56
65.14
69.06
70.01
68.71
65.99
62.81
59.98
57.99
56.87
56.32
55.92
55.47
55.08
55.05
55.66
56.91
58.43
59.55
59.61
58.11
54.97
50.46
45.11
39.51
34.14
29.22
24.66
20.08
15.01
9.14
2.60
-4.04
-9.93
-14.35
-17.07
-18.55
-19.73
-21.67
-25.15
-30.44
-37.28
-44.96
-52.64
-59.52
-65.10
-69.37
-72.91
-76.78
-82.17
-89.90
-99.80
-110.57
-119.76
-124.35
-121.62
-110.06
-89.88
-63.19
-33.38
-4.18
21.29
41.20
55.20
63.92
68.48
69.97
69.26
67.03
63.94
60.66
57.83
55.86
54.85
54.61
54.84
55.22
55.60
56.02
56.54
57.14
57.61
57.57
56.58
54.37
50.89
46.37
41.17
35.64
30.01
24.31
18.45
12.42
6.36
0.59
-4.57
-8.97
-12.71
-16.22
-19.96
-24.26
-29.14
-34.34
-39.49
-44.27
-48.61
-52.62
-56.67
-61.27
-67.02
-74.39
-83.42
-93.26
-102.11
-107.43
-106.71
-98.31
-82.19
-59.99
-34.54
-9.00
13.97
32.75
46.72
55.99
61.04
62.43
60.74
56.68
51.17
45.31
40.17
36.57
34.87
34.89
36.07
37.76
39.46
40.97
42.26
43.35
44.09
44.12
42.96
40.22
35.83
30.01
23.31
16.37
9.79
3.87
-1.32
-6.04
-10.68
-15.62
-21.07
-26.94
-32.88
-38.38
-43.01
-46.67
-49.67
-52.70
-56.59
-62.12
-69.67
-79.05
-89.30
-98.69
-104.92
-105.63
-99.13
-85.04
-64.55
-40.13
-14.84
8.55
28.22
43.42
54.20
61.02
64.38
64.77
62.74
59.00
54.42
49.85
46.06
43.47
42.25
42.26
43.21
44.70
46.34
47.79
48.78
49.08
48.47
46.77
43.80
39.51
34.00
27.59
20.74
14.02
7.88
2.52
-2.16
-6.62
-11.43
-17.10
-23.72
-30.96
-38.14
-44.48
-49.49
-53.16
-56.03
-59.05
-63.26
-69.60
-78.50
-89.63
-101.67
-112.37
-118.83
-118.35
-109.21
-91.46
-67.03
-39.25
-11.85
12.08
30.77
43.95
52.45
57.59
60.65
62.47
63.48
63.83
63.56
62.75
61.56
60.20
58.90
57.84
57.17
57.00
57.35
58.17
59.21
60.08
60.32
59.52
57.46
54.05
49.41
43.77
37.42
30.66
23.87
17.40
11.51
6.29
1.66
-2.68
-7.12
-12.06
-17.70
-24.03
-30.83
-37.69
-44.15
-49.89
-54.83
-59.16
-63.43
-68.37
-74.75
-83.06
-93.25
-104.35
-114.36
-120.63
-120.46
-112.01
-95.04
-71.16
-43.31
-14.98
10.72
31.71
47.15
57.25
62.94
65.42
65.96
65.54
64.79
63.99
63.23
62.54
62.00
61.63
61.38
61.11
60.68
60.10
59.61
59.46
59.76
60.22
60.28
59.27
56.77
52.66
47.13
40.54
33.35
26.00
18.98
12.75
7.57
3.45
0.05
-3.17
-6.77
-11.28
-16.90
-23.51
-30.63
-37.55
-43.46
-47.93
-50.99
-53.30
-55.94
-60.11
-66.68
-75.92
-87.12
-98.54
-107.52
-111.09
-106.88
-93.94
-73.23
-47.49
-20.30
4.96
26.05
42.03
53.08
59.79
62.80
62.65
59.96
55.59
50.61
46.12
42.92
41.36
41.27
42.14
43.38
44.47
45.19
45.59
45.89
46.25
46.55
46.37
45.01
41.88
36.73
29.86
22.04
14.22
7.19
1.27
-3.65
-8.01
-12.31
-16.90
-21.87
-27.06
-32.17
-36.87
-41.00
-44.64
-48.20
-52.34
-57.81
-65.20
-74.52
-84.88
-94.50
-100.91
-101.62
-94.91
-80.51
-59.80
-35.49
-10.72
11.74
30.21
44.13
53.78
59.74
62.57
62.72
60.67
57.07
52.84
48.91
45.95
44.29
43.77
43.91
44.25
44.53
44.76
45.08
45.49
45.71
45.19
43.34
39.81
34.71
28.55
22.07
15.93
10.48
5.72
1.29
-3.37
-8.87
-15.54
-23.26
-31.49
-39.32
-45.92
-50.84
-54.23
-56.77
-59.49
-63.45
-69.61
-78.44
-89.61
-101.63
-111.95
-117.34
-114.98
-103.51
-83.63
-58.01
-30.36
-4.23
17.87
34.85
46.82
54.60
59.19
61.56
62.51
62.65
62.37
61.84
61.11
60.16
58.93
57.45
55.83
54.30
53.18
52.76
53.18
54.24
55.40
55.93
55.14
52.68
48.62
43.36
37.40
31.11
24.73
18.43
12.42
6.98
2.33
-1.56
-5.02
-8.61
-12.88
-18.15
-24.34
-31.08
-37.82
-44.08
-49.51
-54.06
-57.96
-61.68
-65.98
-71.71
-79.55
-89.65
-101.20
-112.36
-120.40
-122.40
-116.16
-101.04
-78.30
-50.84
-22.39
3.68
25.13
41.17
52.24
59.36
63.62
65.83
66.56
66.23
65.21
63.89
62.54
61.35
60.35
59.48
58.68
57.92
57.24
56.74
56.47
56.36
56.20
55.61
54.18
51.60
47.82
43.01
37.50
31.60
25.49
19.32
13.20
7.35
2.02
-2.64
-6.73
-10.59
-14.74
-19.58
-25.18
-31.25
-37.17
-42.38
-46.53
-49.77
-52.61
-55.82
-60.24
-66.55
-75.03
-85.27
-95.89
-104.62
-108.69
-105.64
-94.22
-74.99
-50.31
-23.60
1.64
22.87
38.90
49.75
56.12
58.92
58.89
56.70
53.09
48.90
45.03
42.19
40.74
40.53
41.08
41.81
42.32
42.51
42.54
42.63
42.88
43.06
42.75
41.40
38.60
34.22
28.48
21.83
14.91
8.30
2.38
-2.75
-7.30
-11.70
-16.40
-21.61
-27.29
-33.04
-38.39
-43.00
-46.79
-50.04
-53.34
-57.36
-62.77
-69.98
-78.92
-88.69
-97.59
-103.24
-103.24
-95.93
-81.04
-59.95
-35.33
-10.27
12.52
31.33
45.53
55.29
61.14
63.67
63.46
61.13
57.45
53.32
49.56
46.82
45.33
44.95
45.27
45.82
46.21
46.27
46.03
45.64
45.16
44.52
43.43
41.54
38.52
34.19
28.62
22.10
15.10
8.16
1.76
-3.90
-8.89
-13.58
-18.44
-23.78
-29.64
-35.69
-41.43
-46.44
-50.61
-54.21
-57.91
-62.50
-68.72
-76.99
-87.15
-98.18
-108.21
-114.72
-115.25
-108.07
-92.95
-71.35
-46.01
-20.18
3.29
22.66
37.44
48.10
55.52
60.53
63.66
65.23
65.43
64.57
63.00
61.15
59.34
57.81
56.69
56.03
55.92
56.41
57.45
58.79
60.02
60.54
59.76
57.30
53.12
47.60
41.39
35.24
29.69
24.87
20.51
16.11
11.19
5.64
-0.30
-6.12
-11.32
-15.67
-19.39
-22.99
-27.08
-32.07
-37.97
-44.41
-50.80
-56.61
-61.61
-65.98
-70.28
-75.34
-81.98
-90.64
-101.06
-111.98
-121.19
-125.90
-123.61
-112.89
-94.07
-69.20
-41.52
-14.42
9.46
28.75
43.32
53.81
61.04
65.69
68.20
68.94
68.36
67.06
65.66
64.57
63.98
63.87
64.11
64.59
65.21
65.86
66.40
66.60
66.26
65.21
63.29
60.43
56.64
52.09
47.09
42.04
37.35
33.15
29.34
25.51
21.21
16.13
10.31
4.10
-1.95
-7.30
-11.58
-14.76
-17.16
-19.38
-22.09
-25.83
-30.81
-36.75
-43.08
-49.13
-54.42
-58.76
-62.43
-66.05
-70.45
-76.47
-84.58
-94.56
-105.18
-114.19
-118.79
-116.40
-105.61
-86.75
-61.92
-34.35
-7.48
16.05
34.75
48.33
57.25
62.24
64.04
63.32
60.74
57.13
53.40
50.30
48.34
47.62
47.88
48.69
49.61
50.34
50.73
50.78
50.49
49.85
48.81
47.23
44.95
41.82
37.71
32.64
26.75
20.36
13.86
7.69
2.18
-2.49
-6.36
-9.70
-12.98
-16.68
-21.11
-26.32
-32.06
-37.87
-43.30
-48.05
-52.14
-55.79
-59.43
-63.66
-69.07
-75.97
-84.08
-92.14
-97.96
-98.97
-93.09
-79.57
-59.43
-35.12
-9.74
13.86
33.69
48.77
58.94
64.53
66.09
64.36
60.25
54.74
48.87
43.56
39.57
37.33
36.94
38.08
40.12
42.34
44.10
45.07
45.23
44.73
43.67
42.12
39.95
37.03
33.22
28.47
22.89
16.74
10.42
4.35
-1.14
-6.03
-10.55
-15.16
-20.26
-26.04
-32.30
-38.53
-44.19
-48.93
-52.74
-56.05
-59.49
-63.80
-69.61
-77.23
-86.58
-96.95
-106.94
-114.45
-117.12
-112.84
-100.60
-80.92
-55.91
-28.72
-2.66
19.74
37.20
49.63
57.79
62.67
65.16
65.86
65.21
63.60
61.49
59.32
57.45
56.13
55.42
55.25
55.44
55.81
56.18
56.38
56.22
55.49
53.99
51.56
48.18
44.03
39.49
35.00
30.81
26.93
23.03
18.65
13.41
7.24
0.49
-6.21
-12.19
-17.00
-20.64
-23.56
-26.50
-30.09
-34.67
-40.07
-45.83
-51.45
-56.69
-61.69
-66.92
-72.96
-80.25
-88.95
-98.68
-108.44
-116.47
-120.46
-118.19
-108.19
-90.50
-66.79
-40.02
-13.45
10.21
29.42
43.81
53.85
60.29
63.90
65.29
65.03
63.71
61.90
60.12
58.76
58.01
57.80
57.91
58.06
58.05
57.94
57.88
58.03
58.29
58.25
57.28
54.92
51.07
46.16
40.88
35.85
31.35
27.19
22.91
18.10
12.64
6.78
1.01
-4.12
-8.33
-11.72
-14.70
-17.92
-21.91
-26.91
-32.67
-38.63
-44.14
-48.77
-52.56
-55.98
-59.83
-64.96
-72.00
-81.02
-91.24
-100.95
-107.71
-108.97
-102.84
-88.91
-68.42
-43.90
-18.38
5.44
25.78
41.76
53.20
60.25
63.26
62.76
59.54
54.63
49.20
44.36
40.93
39.29
39.33
40.53
42.17
43.59
44.46
44.74
44.70
44.52
44.18
43.43
41.86
39.12
35.04
29.73
23.54
16.95
10.52
4.68
-0.41
-4.93
-9.31
-13.98
-19.18
-24.77
-30.39
-35.58
-40.05
-43.80
-47.08
-50.34
-54.10
-58.91
-65.23
-73.22
-82.51
-91.98
-99.80
-103.76
-101.84
-92.89
-77.09
-55.99
-32.12
-8.30
13.07
30.58
43.86
53.23
59.30
62.60
63.43
62.06
58.92
54.70
50.27
46.52
44.04
43.11
43.63
45.21
47.34
49.49
51.16
51.98
51.68
50.11
47.32
43.50
38.95
34.09
29.32
24.85
20.66
16.51
12.09
7.21
1.93
-3.60
-9.23
-14.94
-20.79
-26.78
-32.72
-38.27
-43.16
-47.28
-50.90
-54.43
-58.39
-63.22
-69.28
-76.89
-86.21
-96.84
-107.57
-116.24
-120.14
-116.88
-105.29
-85.95
-61.16
-34.14
-8.12
14.54
32.66
46.16
55.58
61.68
65.16
66.65
66.64
65.70
64.29
62.80
61.42
60.22
59.20
58.43
58.06
58.21
58.87
59.81
60.61
60.80
60.05
58.17
55.20
51.26
46.61
41.58
36.55
31.81
27.40
23.12
18.52
13.23
7.22
0.85
-5.26
-10.52
-14.72
-18.03
-21.02
-24.29
-28.34
-33.33
-39.11
-45.27
-51.31
-56.89
-61.88
-66.61
-71.73
-77.98
-85.89
-95.36
-105.40
-114.07
-118.83
-117.20
-107.62
-90.02
-66.13
-38.94
-11.87
12.34
32.08
47.07
57.75
64.75
68.57
69.57
68.19
65.17
61.50
58.08
55.52
54.04
53.54
53.81
54.62
55.77
56.97
57.89
58.19
57.61
56.05
53.60
50.43
46.71
42.56
38.02
33.09
27.80
22.17
16.31
10.41
4.69
-0.66
-5.54
-10.08
-14.43
-18.76
-23.15
-27.54
-31.77
-35.72
-39.38
-42.91
-46.64
-51.02
-56.50
-63.45
-71.88
-81.27
-90.45
-97.61
-100.63
-97.69
-87.81
-71.30
-49.79
-25.83
-2.20
18.78
35.79
48.49
57.18
62.33
64.27
63.21
59.45
53.74
47.24
41.30
37.03
34.87
34.58
35.44
36.63
37.61
38.28
38.77
39.23
39.59
39.43
38.13
35.12
30.21
23.81
16.85
10.39
5.16
1.18
-2.24
-6.12
-11.32
-18.12
-26.03
-34.09
-41.28
-46.87
-50.69
-53.12
-54.94
-57.18
-60.86
-66.83
-75.34
-85.78
-96.47
-104.87
-108.15
-103.98
-91.36
-71.11
-45.70
-18.55
6.91
28.16
44.04
54.63
60.78
63.55
63.82
62.27
59.47
56.03
52.58
49.69
47.69
46.61
46.23
46.17
46.17
46.10
46.00
46.00
46.18
46.40
46.26
45.24
42.84
38.76
33.12
26.36
19.16
12.18
5.88
0.43
-4.36
-8.87
-13.61
-19.02
-25.32
-32.39
-39.78
-46.84
-52.94
-57.82
-61.62
-64.94
-68.65
-73.70
-80.83
-90.15
-100.94
-111.41
-118.98
-120.81
-114.75
-100.09
-78.00
-51.13
-22.91
3.48
25.80
43.00
55.06
62.60
66.49
67.68
67.06
65.44
63.50
61.76
60.53
59.88
59.67
59.65
59.57
59.30
58.92
58.61
58.53
58.62
58.57
57.95
56.34
53.54
49.63
44.92
39.77
34.48
29.15
23.73
18.07
12.09
5.84
-0.46
-6.45
-11.85
-16.60
-20.91
-25.20
-29.85
-35.05
-40.69
-46.43
-51.93
-56.95
-61.52
-65.89
-70.58
-76.25
-83.44
-92.22
-101.79
-110.24
-114.95
-113.22
-103.36
-85.35
-61.04
-33.56
-6.36
17.77
37.22
51.52
61.05
66.43
68.34
67.40
64.30
59.91
55.22
51.20
48.50
47.31
47.38
48.15
49.03
49.63
49.86
49.86
49.82
49.79
49.62
48.97
47.41
44.53
40.13
34.23
27.20
19.71
12.51
6.17
0.88
-3.66
-8.04
-12.80
-18.18
-24.01
-29.83
-35.16
-39.74
-43.64
-47.23
-51.03
-55.63
-61.54
-69.00
-77.80
-87.05
-95.15
-99.93
-99.26
-91.66
-76.94
-56.37
-32.39
-7.92
14.46
33.06
47.24
57.14
63.20
65.82
65.32
62.08
56.79
50.50
44.39
39.47
36.29
34.87
34.89
35.85
37.29
38.88
40.32
41.35
41.66
40.94
38.92
35.41
30.42
24.27
17.51
10.83
4.80
-0.44
-5.23
-10.17
-15.91
-22.65
-30.07
-37.40
-43.88
-49.08
-53.15
-56.71
-60.60
-65.61
-72.26
-80.66
-90.32
-99.99
-107.66
-110.84
-107.24
-95.59
-76.27
-51.39
-24.20
1.89
24.26
41.62
53.94
61.93
66.51
68.42
68.18
66.13
62.68
58.42
54.04
50.29
47.71
46.52
46.56
47.37
48.44
49.35
49.98
50.44
50.82
51.03
50.66
49.14
45.88
40.68
33.80
25.87
17.72
10.04
3.27
-2.46
-7.33
-11.69
-16.03
-20.85
-26.51
-33.05
-40.24
-47.56
-54.46
-60.56
-65.82
-70.50
-75.19
-80.67
-87.72
-96.76
-107.45
-118.27
-126.53
-129.07
-123.31
-108.27
-85.17
-56.90
-27.21
0.53
24.14
42.65
56.10
65.02
70.16
72.30
72.31
71.08
69.27
67.36
65.52
63.75
62.01
60.38
59.03
58.19
58.05
58.66
59.83
61.12
61.97
61.92
60.70
58.33
55.00
50.89
46.06
40.48
34.16
27.20
19.90
12.66
5.93
0.03
-4.91
-9.04
-12.82
-16.85
-21.72
-27.68
-34.54
-41.74
-48.58
-54.55
-59.60
-64.07
-68.56
-73.85
-80.63
-89.31
-99.69
-110.53
-119.52
-123.65
-120.15
-107.51
-86.27
-58.88
-28.98
-0.24
24.61
44.18
58.26
67.37
72.28
73.77
72.60
69.55
65.41
61.02
57.11
54.23
52.65
52.35
53.01
54.20
55.48
56.52
57.13
57.21
56.68
55.46
53.43
50.53
46.75
42.10
36.67
30.60
24.15
17.64
11.38
5.59
0.34
-4.42
-8.82
-13.09
-17.48
-22.23
-27.48
-33.20
-39.13
-44.83
-49.96
-54.45
-58.64
-63.26
-69.17
-76.92
-86.38
-96.37
-104.83
-109.10
-106.73
-96.28
-77.96
-53.69
-26.56
0.14
23.83
43.07
57.44
67.14
72.50
73.82
71.54
66.41
59.61
52.52
46.42
42.22
40.31
40.51
42.23
44.69
47.06
48.74
49.46
49.28
48.40
47.01
45.06
42.36
38.67
33.92
28.27
22.10
15.84
9.78
4.04
-1.54
-7.15
-13.05
-19.39
-26.08
-32.85
-39.25
-44.87
-49.47
-53.15
-56.37
-59.82
-64.29
-70.47
-78.75
-89.04
-100.39
-110.98
-118.26
-119.55
-112.88
-97.71
-75.25
-48.19
-19.85
6.69
29.32
47.05
59.92
68.45
73.29
75.05
74.20
71.35
67.17
62.53
58.26
55.03
53.14
52.48
52.67
53.24
53.82
54.25
54.48
54.45
54.04
53.01
51.17
48.36
44.54
39.79
34.23
28.02
21.36
14.49
7.67
1.20
-4.74
-10.09
-15.00
-19.80
-24.86
-30.43
-36.54
-42.87
-48.94
-54.25
-58.63
-62.29
-65.93
-70.50
-76.94
-85.84
-96.98
-109.11
-119.94
-126.53
-126.03
-116.57
-98.04
-72.19
-42.25
-11.95
15.40
37.71
54.18
65.08
71.26
73.73
73.51
71.56
68.75
65.83
63.26
61.25
59.72
58.52
57.56
56.89
56.64
56.90
57.58
58.40
58.95
58.82
57.72
55.55
52.36
48.35
43.82
38.98
33.91
28.54
22.65
16.11
8.95
1.62
-5.28
-11.12
-15.58
-18.83
-21.46
-24.26
-27.99
-33.03
-39.25
-46.08
-52.73
-58.48
-63.07
-66.80
-70.57
-75.50
-82.52
-91.81
-102.49
-112.49
-118.93
-118.90
-110.38
-93.01
-68.37
-39.56
-10.30
16.17
37.75
53.74
64.28
70.00
71.55
69.66
65.25
59.52
53.72
48.93
45.74
44.19
43.94
44.51
45.31
45.94
46.16
46.02
45.72
45.52
45.46
45.24
44.25
41.82
37.62
31.74
24.70
17.15
9.75
2.97
-2.93
-7.89
-12.12
-16.02
-20.10
-24.75
-30.03
-35.56
-40.76
-45.18
-48.76
-51.91
-55.37
-59.94
-66.22
-74.38
-83.96
-93.77
-101.82
-105.74
-103.36
-93.54
-76.55
-54.10
-28.81
-3.43
19.78
39.33
54.42
64.76
70.35
71.49
68.78
63.14
55.76
47.96
40.99
35.82
32.96
32.38
33.59
35.81
38.30
40.56
42.26
43.19
43.14
41.82
38.97
34.61
29.05
22.83
16.61
10.85
5.67
0.84
-4.22
-10.10
-17.15
-25.24
-33.73
-41.72
-48.36
-53.28
-56.73
-59.51
-62.79
-67.68
-75.06
-85.07
-96.89
-108.53
-117.10
-119.52
-113.46
-98.29
-75.35
-47.57
-18.62
8.24
30.72
47.85
59.69
66.92
70.48
71.28
70.12
67.63
64.38
60.87
57.54
54.77
52.71
51.26
50.15
49.16
48.23
47.63
47.70
48.55
49.84
50.71
50.14
47.32
41.95
34.39
25.56
16.59
8.41
1.50
-4.25
-9.46
-14.91
-21.18
-28.39
-36.10
-43.61
-50.25
-55.72
-60.22
-64.41
-69.16
-75.37
-83.68
-94.16
-106.07
-117.63
-126.24
-129.05
-123.84
-109.83
-88.08
-61.21
-32.63
-5.60
17.52
35.52
48.25
56.20
60.19
61.07
59.69
56.81
53.07
48.95
44.87
41.11
37.96
35.67
34.39
34.15
34.84
36.30
38.38
41.01
44.15
47.66
51.26
54.45
56.66
57.43
56.53
54.06
50.33
45.77
40.76
35.57
30.32
25.00
19.50
13.66
7.33
0.48
-6.80
-14.26
-21.57
-28.53
-35.06
-41.27
-47.46
-54.02
-61.45
-70.21
-80.48
-91.84
-102.89
-111.23
-114.01
-108.87
-94.87
-73.07
-46.25
-18.05
8.29
30.63
48.25
61.38
70.64
76.51
79.25
79.06
76.38
71.98
66.95
62.34
58.95
57.08
56.53
56.83
57.49
58.19
58.83
59.31
59.44
58.90
57.32
54.47
50.43
45.58
40.34
35.00
29.64
24.17
18.50
12.60
6.58
0.59
-5.22
-10.83
-16.27
-21.63
-26.99
-32.35
-37.60
-42.58
-47.12
-51.27
-55.31
-59.73
-65.13
-72.01
-80.58
-90.57
-101.10
-110.49
-116.57
-116.95
-109.83
-94.73
-72.84
-46.73
-19.60
5.65
27.16
44.22
56.95
65.81
71.27
73.68
73.42
70.96
66.96
62.23
57.58
53.73
51.14
49.92
49.91
50.74
52.02
53.47
54.92
56.15
56.83
56.51
54.78
51.46
46.77
41.24
35.55
30.24
25.52
21.25
17.04
12.37
6.88
0.59
-6.02
-12.27
-17.51
-21.55
-24.72
-27.72
-31.21
-35.46
-40.28
-45.23
-49.95
-54.37
-58.78
-63.68
-69.55
-76.75
-85.39
-94.99
-104.28
-111.18
-113.10
-107.91
-94.68
-74.29
-49.15
-22.48
2.74
24.45
41.73
54.49
63.02
67.66
68.75
66.61
61.78
55.18
48.03
41.61
37.07
34.99
35.25
37.12
39.65
42.04
43.92
45.14
45.70
45.47
44.21
41.71
38.00
33.34
28.12
22.70
17.30
12.02
6.91
1.88
-3.24
-8.68
-14.60
-20.98
-27.50
-33.57
-38.64
-42.39
-44.90
-46.64
-48.36
-50.93
-55.21
-61.78
-70.76
-81.50
-92.35
-100.95
-104.65
-101.29
-89.91
-71.16
-47.22
-21.21
3.62
24.77
40.91
51.86
58.26
61.02
60.91
58.52
54.35
49.05
43.41
38.18
33.91
30.84
28.99
28.24
28.61
30.04
32.33
34.99
37.23
38.25
37.45
34.53
29.66
23.31
16.11
8.76
1.77
-4.61
-10.46
-16.17
-22.16
-28.69
-35.54
-42.20
-48.02
-52.61
-56.09
-59.20
-62.95
-68.34
-75.84
-85.02
-94.47
-101.99
-105.14
-102.00
-91.76
-75.00
-53.48
-29.66
-6.00
15.51
33.59
47.62
57.41
63.07
64.84
63.11
58.43
51.66
43.93
36.51
30.60
27.02
25.97
26.97
29.13
31.44
33.13
33.75
33.23
31.66
29.18
25.88
21.80
16.87
10.97
4.01
-3.95
-12.67
-21.61
-30.22
-37.98
-44.65
-50.34
-55.50
-60.85
-67.17
-75.08
-84.66
-95.13
-104.73
-110.96
-111.30
-103.96
-88.66
-66.73
-40.79
-13.94
10.98
32.07
48.42
60.04
67.42
71.25
72.12
70.54
67.05
62.33
57.26
52.81
49.78
48.48
48.66
49.57
50.35
50.35
49.32
47.37
44.79
41.80
38.40
34.39
29.40
23.15
15.57
6.87
-2.44
-11.68
-20.25
-27.83
-34.43
-40.40
-46.29
-52.70
-60.23
-69.27
-79.82
-91.15
-101.58
-108.61
-109.56
-102.39
-86.63
-63.64
-36.38
-8.43
17.02
37.91
53.57
64.43
71.44
75.58
77.58
77.92
76.97
75.15
72.95
70.85
69.17
67.99
67.16
66.45
65.74
65.12
64.78
64.84
65.16
65.29
64.61
62.63
59.14
54.27
48.40
41.90
35.07
28.00
20.67
13.10
5.46
-1.88
-8.50
-14.06
-18.56
-22.39
-26.26
-30.90
-36.77
-43.79
-51.40
-58.79
-65.30
-70.67
-75.23
-79.83
-85.56
-93.45
-103.95
-116.49
-129.26
-139.35
-143.48
-138.95
-124.63
-101.45
-72.18
-40.57
-10.32
15.95
36.99
52.78
64.07
71.84
76.89
79.79
80.99
80.94
80.07
78.85
77.58
76.39
75.23
74.05
72.86
71.83
71.13
70.82
70.70
70.28
69.02
66.52
62.69
57.76
52.19
46.43
40.77
35.22
29.59
23.57
16.99
9.97
2.97
-3.41
-8.68
-12.78
-16.19
-19.76
-24.34
-30.37
-37.68
-45.60
-53.27
-60.02
-65.66
-70.42
-74.96
-80.13
-86.81
-95.66
-106.66
-118.73
-129.61
-136.14
-135.18
-124.71
-104.74
-77.41
-46.43
-15.84
11.13
32.74
48.75
59.90
67.27
71.81
74.18
74.91
74.48
73.45
72.29
71.29
70.49
69.74
68.87
67.83
66.72
65.82
65.33
65.28
65.36
65.06
63.77
61.07
56.85
51.41
45.33
39.26
33.64
28.57
23.80
18.91
13.57
7.82
1.99
-3.44
-8.16
-12.23
-16.10
-20.33
-25.41
-31.39
-37.89
-44.32
-50.14
-55.08
-59.29
-63.25
-67.67
-73.29
-80.71
-90.05
-100.65
-110.87
-118.26
-120.04
-114.02
-99.45
-77.38
-50.51
-22.38
3.67
25.33
41.70
52.98
59.99
63.55
64.35
62.92
59.86
55.98
52.17
49.22
47.51
47.04
47.40
48.08
48.65
48.93
48.92
48.74
48.47
48.03
47.21
45.67
43.07
39.21
34.12
28.02
21.36
14.61
8.19
2.34
-2.88
-7.59
-12.05
-16.59
-21.43
-26.61
-31.98
-37.26
-42.19
-46.69
-50.87
-55.01
-59.48
-64.70
-71.14
-79.05
-88.21
-97.53
-105.01
-108.16
-104.69
-93.42
-74.80
-50.91
-24.75
0.59
22.77
40.45
53.29
61.57
65.82
66.59
64.55
60.45
55.26
50.05
45.85
43.35
42.73
43.63
45.33
47.01
48.11
48.39
47.94
46.99
45.73
44.13
42.06
39.26
35.48
30.59
24.67
18.03
11.18
4.60
-1.38
-6.75
-11.78
-16.91
-22.48
-28.58
-34.99
-41.27
-46.94
-51.74
-55.63
-58.91
-62.16
-66.14
-71.71
-79.51
-89.60
-101.09
-111.98
-119.49
-120.77
-113.85
-98.40
-75.96
-49.41
-22.10
3.11
24.43
41.20
53.55
61.95
66.96
69.12
68.99
67.26
64.73
62.14
60.08
58.81
58.31
58.34
58.61
59.00
59.48
60.15
60.98
61.71
61.81
60.64
57.79
53.31
47.69
41.74
36.20
31.41
27.22
23.14
18.55
13.09
6.78
0.02
-6.64
-12.66
-17.79
-22.04
-25.72
-29.29
-33.18
-37.65
-42.80
-48.46
-54.36
-60.20
-65.81
-71.24
-76.80
-83.05
-90.65
-99.96
-110.73
-121.64
-130.35
-134.00
-130.02
-117.14
-95.92
-68.71
-38.90
-9.91
15.68
36.48
52.22
63.30
70.39
74.19
75.35
74.55
72.48
69.84
67.24
65.17
63.90
63.46
63.66
64.18
64.75
65.22
65.59
65.91
66.16
66.14
65.47
63.78
60.84
56.69
51.63
46.13
40.63
35.42
30.55
25.86
21.08
16.03
10.65
5.16
-0.10
-4.75
-8.60
-11.73
-14.52
-17.48
-21.09
-25.66
-31.20
-37.42
-43.93
-50.25
-56.01
-61.04
-65.49
-69.74
-74.52
-80.63
-88.79
-99.14
-110.88
-122.07
-129.89
-131.33
-124.17
-107.85
-83.73
-54.80
-24.75
3.09
26.45
44.37
56.93
64.83
68.90
69.92
68.62
65.76
62.10
58.41
55.32
53.24
52.24
52.11
52.54
53.22
53.99
54.85
55.79
56.69
57.20
56.85
55.24
52.20
47.87
42.54
36.53
30.08
23.33
16.45
9.73
3.52
-1.88
-6.39
-10.23
-13.87
-17.78
-22.22
-27.16
-32.29
-37.22
-41.65
-45.55
-49.12
-52.83
-57.20
-62.85
-70.21
-79.25
-89.24
-98.53
-104.79
-105.46
-98.65
-83.87
-62.33
-36.72
-10.41
13.52
33.01
47.25
56.42
61.28
62.63
61.18
57.64
52.81
47.59
42.90
39.40
37.32
36.49
36.48
36.89
37.52
38.37
39.54
41.02
42.54
43.57
43.42
41.49
37.46
31.47
24.07
16.08
8.32
1.29
-4.95
-10.71
-16.40
-22.29
-28.38
-34.34
-39.72
-44.24
-47.89
-51.07
-54.51
-59.09
-65.53
-74.04
-84.01
-93.92
-101.46
-104.15
-100.03
-88.29
-69.68
-46.29
-20.97
3.41
24.62
41.39
53.35
60.80
64.34
64.71
62.68
59.05
54.64
50.16
46.18
43.04
40.83
39.56
39.17
39.56
40.60
42.01
43.35
44.06
43.56
41.41
37.53
32.17
25.87
19.26
12.75
6.49
0.27
-6.22
-13.21
-20.62
-28.14
-35.32
-41.78
-47.43
-52.42
-57.13
-62.05
-67.80
-74.91
-83.59
-93.30
-102.46
-108.64
-109.11
-101.85
-86.37
-64.06
-37.74
-10.81
13.78
34.17
49.66
60.42
67.00
70.10
70.42
68.69
65.74
62.38
59.28
56.85
55.16
53.97
52.97
51.92
50.82
49.88
49.35
49.21
49.09
48.32
46.23
42.49
37.23
30.96
24.36
17.84
11.51
5.13
-1.63
-9.04
-17.09
-25.50
-33.71
-41.12
-47.27
-52.11
-56.02
-59.82
-64.51
-71.00
-79.77
-90.51
-101.97
-111.99
-117.80
-116.74
-107.20
-89.22
-64.72
-37.00
-9.68
14.32
33.47
47.62
57.51
64.17
68.46
70.95
71.95
71.71
70.51
68.61
66.32
63.91
61.69
59.89
58.64
57.94
57.75
57.94
58.35
58.70
58.61
57.64
55.41
51.76
46.76
40.69
33.92
26.80
19.63
12.64
6.10
0.18
-5.05
-9.76
-14.37
-19.35
-25.07
-31.59
-38.62
-45.61
-51.90
-57.03
-60.92
-64.01
-67.17
-71.51
-78.01
-87.17
-98.64
-110.99
-121.81
-128.15
-127.20
-117.25
-98.35
-72.44
-42.89
-13.56
12.33
32.93
47.90
58.01
64.45
68.20
69.90
69.94
68.78
67.03
65.37
64.27
63.80
63.63
63.33
62.63
61.65
60.76
60.37
60.62
61.16
61.34
60.43
57.96
53.92
48.71
42.93
37.14
31.64
26.44
21.34
16.15
10.78
5.34
0.08
-4.81
-9.25
-13.35
-17.43
-21.78
-26.60
-31.82
-37.17
-42.25
-46.75
-50.63
-54.15
-57.84
-62.37
-68.39
-76.40
-86.43
-97.80
-108.87
-117.09
-119.62
-114.18
-99.91
-77.95
-51.14
-23.16
2.58
23.88
39.95
51.17
58.39
62.51
64.20
63.89
61.99
59.01
55.52
52.10
49.25
47.23
46.11
45.75
45.93
46.50
47.34
48.34
49.33
50.00
49.90
48.57
45.73
41.29
35.49
28.78
21.72
14.92
8.87
3.84
-0.24
-3.75
-7.29
-11.42
-16.46
-22.31
-28.53
-34.48
-39.65
-43.75
-46.87
-49.45
-52.15
-55.70
-60.77
-67.78
-76.61
-86.44
-95.61
-101.86
-102.83
-96.73
-83.01
-62.69
-38.21
-12.75
10.66
29.92
44.17
53.61
59.08
61.39
61.13
58.63
54.32
48.82
43.09
38.19
34.93
33.62
33.97
35.31
36.94
38.41
39.59
40.59
41.44
41.91
41.50
39.58
35.76
30.06
22.97
15.29
7.84
1.17
-4.57
-9.62
-14.49
-19.66
-25.41
-31.69
-38.08
-44.02
-49.01
-52.90
-55.93
-58.76
-62.27
-67.29
-74.37
-83.49
-93.80
-103.58
-110.42
-111.74
-105.59
-91.42
-70.37
-45.05
-18.76
5.52
25.84
41.49
52.67
60.00
64.06
65.28
64.13
61.20
57.37
53.54
50.47
48.55
47.79
47.91
48.53
49.31
50.05
50.63
50.98
51.00
50.51
49.34
47.29
44.25
40.19
35.18
29.32
22.80
15.89
8.96
2.40
-3.48
-8.59
-13.15
-17.62
-22.47
-27.93
-33.93
-40.10
-45.97
-51.22
-55.81
-60.02
-64.36
-69.46
-75.97
-84.32
-94.43
-105.42
-115.46
-122.01
-122.43
-114.85
-98.86
-75.86
-48.64
-20.63
5.14
26.63
43.09
54.79
62.51
67.14
69.43
69.99
69.35
68.00
66.39
64.85
63.52
62.43
61.60
61.09
61.01
61.50
62.55
63.92
65.15
65.67
64.96
62.75
59.08
54.27
48.84
43.29
37.96
32.95
28.06
22.95
17.35
11.21
4.79
-1.43
-6.97
-11.60
-15.43
-18.93
-22.68
-27.11
-32.31
-38.04
-43.85
-49.24
-53.96
-58.03
-61.85
-66.07
-71.49
-78.75
-87.99
-98.48
-108.44
-115.29
-116.19
-109.09
-93.47
-70.67
-43.58
-15.77
9.58
30.43
46.08
56.85
63.52
66.87
67.48
65.78
62.35
57.93
53.41
49.64
47.22
46.36
46.88
48.29
50.05
51.63
52.74
53.21
52.97
51.92
49.95
47.02
43.27
39.02
34.62
30.30
26.02
21.52
16.52
10.90
4.87
-1.19
-6.85
-11.90
-16.37
-20.49
-24.55
-28.75
-33.10
-37.49
-41.77
-45.83
-49.67
-53.50
-57.70
-62.81
-69.36
-77.62
-87.26
-97.09
-105.03
-108.53
-105.29
-94.04
-75.20
-50.80
-23.94
2.11
24.83
42.80
55.69
63.83
67.88
68.53
66.52
62.70
58.06
53.56
49.97
47.63
46.48
46.20
46.35
46.63
47.00
47.58
48.48
49.68
50.83
51.42
50.82
48.65
44.91
39.98
34.51
29.15
24.22
19.65
15.07
10.04
4.38
-1.72
-7.77
-13.21
-17.73
-21.38
-24.60
-27.90
-31.74
-36.32
-41.54
-47.14
-52.76
-58.08
-62.86
-67.16
-71.30
-75.99
-82.10
-90.27
-100.33
-110.97
-119.69
-123.43
-119.53
-106.71
-85.70
-59.04
-30.32
-3.00
20.39
38.71
51.99
60.88
66.14
68.45
68.32
66.37
63.33
60.05
57.25
55.34
54.35
53.99
53.92
53.92
54.03
54.39
55.12
56.12
56.99
57.24
56.44
54.44
51.36
47.45
42.99
38.10
32.89
27.41
21.77
16.03
10.21
4.32
-1.54
-7.10
-12.04
-16.08
-19.33
-22.26
-25.58
-29.93
-35.53
-42.07
-48.88
-55.27
-60.66
-64.92
-68.32
-71.57
-75.64
-81.59
-90.14
-101.12
-113.14
-123.57
-129.19
-127.13
-115.87
-95.85
-69.33
-39.77
-10.71
14.97
35.64
50.81
60.84
66.51
68.71
68.36
66.35
63.63
60.95
58.86
57.49
56.64
55.98
55.21
54.32
53.57
53.36
53.89
55.13
56.62
57.71
57.67
56.03
52.68
47.95
42.47
36.87
31.60
26.72
22.03
17.18
11.96
6.42
0.85
-4.39
-9.04
-13.10
-16.86
-20.76
-25.21
-30.40
-36.23
-42.37
-48.34
-53.73
-58.37
-62.43
-66.42
-71.08
-77.22
-85.36
-95.38
-106.16
-115.57
-120.83
-119.32
-109.47
-91.38
-66.93
-39.17
-11.39
13.70
34.44
50.24
61.26
68.02
71.13
71.25
69.12
65.55
61.38
57.37
54.08
51.79
50.55
50.20
50.54
51.38
52.56
53.90
55.16
56.00
56.04
54.99
52.70
49.25
44.82
39.64
33.94
27.94
21.85
15.87
10.19
4.90
-0.11
-5.08
-10.32
-16.05
-22.29
-28.80
-35.19
-41.06
-46.12
-50.35
-53.96
-57.46
-61.49
-66.79
-73.94
-83.10
-93.53
-103.54
-110.57
-111.88
-105.43
-90.67
-68.83
-42.59
-15.30
10.00
31.25
47.55
58.92
65.85
69.00
69.03
66.70
62.87
58.48
54.33
51.02
48.80
47.63
47.35
47.72
48.50
49.45
50.36
51.08
51.49
51.56
51.19
50.19
48.28
45.18
40.75
35.05
28.44
21.40
14.41
7.85
1.93
-3.32
-8.07
-12.60
-17.29
-22.37
-27.93
-33.71
-39.32
-44.41
-48.77
-52.50
-55.97
-59.77
-64.60
-71.15
-79.77
-90.09
-100.73
-109.30
-112.91
-109.10
-96.76
-76.59
-51.04
-23.42
2.98
25.77
43.70
56.52
64.61
68.59
69.21
67.21
63.37
58.57
53.66
49.37
46.19
44.31
43.61
43.70
44.15
44.60
44.92
45.18
45.51
45.91
46.12
45.63
43.86
40.39
35.18
28.65
21.55
14.69
8.67
3.65
-0.66
-4.87
-9.60
-15.20
-21.60
-28.35
-34.79
-40.37
-44.81
-48.22
-51.06
-54.03
-57.96
-63.68
-71.72
-81.90
-93.00
-102.77
-108.29
-106.90
-97.10
-79.17
-55.12
-28.05
-1.32
22.30
41.02
54.17
61.95
65.17
64.96
62.49
58.74
54.50
50.32
46.66
43.91
42.25
41.60
41.62
41.86
42.03
42.12
42.36
42.98
43.94
44.85
45.10
44.16
41.68
37.64
32.27
25.94
19.08
12.22
5.82
0.21
-4.56
-8.78
-12.98
-17.65
-23.05
-29.02
-35.06
-40.58
-45.21
-48.95
-52.24
-55.74
-60.23
-66.28
-74.04
-83.04
-92.05
-99.17
-102.14
-98.96
-88.52
-71.12
-48.42
-23.08
1.99
24.30
42.24
55.13
62.96
66.20
65.48
61.64
55.67
48.70
41.93
36.33
32.56
30.74
30.56
31.49
32.97
34.62
36.28
37.88
39.29
40.13
39.93
38.21
34.76
29.78
23.84
17.67
11.89
6.73
2.00
-2.79
-8.16
-14.33
-21.09
-27.87
-33.98
-38.93
-42.67
-45.63
-48.54
-52.27
-57.56
-64.77
-73.62
-83.01
-91.08
-95.47
-93.97
-85.29
-69.52
-48.30
-24.35
-0.68
20.26
36.98
48.99
56.55
60.17
60.42
57.86
53.14
47.07
40.62
34.78
30.27
27.47
26.39
26.74
28.14
30.17
32.37
34.33
35.56
35.65
34.29
31.44
27.27
22.16
16.53
10.67
4.73
-1.32
-7.59
-14.16
-20.96
-27.74
-34.22
-40.20
-45.66
-50.83
-56.13
-62.12
-69.21
-77.57
-86.76
-95.54
-101.95
-103.65
-98.69
-86.27
-67.17
-43.66
-18.71
4.87
25.17
41.38
53.46
61.73
66.45
67.88
66.39
62.58
57.37
51.74
46.60
42.59
40.04
39.00
39.32
40.76
42.94
45.42
47.73
49.26
49.42
47.68
43.80
37.93
30.68
22.89
15.35
8.52
2.34
-3.69
-10.12
-17.32
-25.19
-33.22
-40.73
-47.16
-52.40
-56.88
-61.44
-67.13
-74.75
-84.47
-95.51
-106.03
-113.50
-115.26
-109.37
-95.29
-74.13
-48.42
-21.35
4.04
25.63
42.48
54.69
62.96
68.12
70.85
71.65
70.88
68.98
66.51
64.09
62.22
61.13
60.76
60.82
61.00
61.09
61.02
60.84
60.54
59.99
58.92
57.04
54.21
50.40
45.74
40.33
34.18
27.25
19.63
11.74
4.16
-2.44
-7.74
-11.91
-15.60
-19.58
-24.39
-30.07
-36.34
-42.77
-49.07
-55.12
-61.04
-67.04
-73.50
-80.92
-89.75
-99.96
-110.61
-119.61
-124.18
-121.73
-110.82
-91.82
-66.86
-39.12
-11.79
12.69
32.98
48.75
60.25
67.94
72.25
73.60
72.56
69.97
66.83
64.13
62.58
62.35
63.18
64.55
65.99
67.19
67.96
68.18
67.67
66.27
63.91
60.72
56.94
52.82
48.50
43.98
39.18
34.02
28.44
22.39
15.96
9.37
3.00
-2.73
-7.58
-11.64
-15.35
-19.25
-23.71
-28.68
-33.91
-39.03
-43.91
-48.69
-53.70
-59.36
-66.05
-74.02
-83.18
-92.78
-101.27
-106.33
-105.53
-97.23
-81.25
-59.21
-34.04
-9.01
13.21
31.12
44.46
53.66
59.40
62.14
62.14
59.68
55.32
50.07
45.15
41.68
40.30
40.92
42.83
45.06
46.84
47.86
48.26
48.38
48.41
48.22
47.34
45.25
41.62
36.44
30.09
23.16
16.29
10.00
4.53
-0.20
-4.52
-8.84
-13.51
-18.64
-24.09
-29.51
-34.54
-38.97
-42.81
-46.32
-49.92
-54.11
-59.37
-66.09
-74.47
-84.14
-93.98
-102.11
-106.13
-103.82
-93.96
-76.89
-54.61
-30.20
-6.85
13.12
28.72
40.20
48.46
54.38
58.45
60.75
61.23
60.02
57.54
54.42
51.32
48.78
47.07
46.29
46.38
47.18
48.44
49.84
51.00
51.59
51.20
49.52
46.35
41.66
35.67
28.86
21.80
15.06
9.01
3.82
-0.60
-4.47
-8.17
-12.20
-16.96
-22.64
-29.13
-35.94
-42.46
-48.16
-52.84
-56.69
-60.24
-64.23
-69.47
-76.59
-85.85
-96.77
-107.91
-116.91
-120.97
-117.76
-106.21
-87.08
-62.72
-36.36
-11.12
10.80
28.38
41.62
51.08
57.49
61.49
63.62
64.36
64.17
63.49
62.63
61.72
60.76
59.67
58.51
57.44
56.75
56.73
57.48
58.74
59.96
60.38
59.32
56.44
51.87
46.18
40.14
34.48
29.61
25.55
21.94
18.25
14.01
9.00
3.38
-2.42
-7.86
-12.62
-16.69
-20.51
-24.64
-29.54
-35.34
-41.71
-48.11
-54.01
-59.17
-63.70
-68.02
-72.79
-78.70
-86.36
-95.94
-106.92
-117.75
-126.00
-128.88
-124.08
-110.69
-89.63
-63.43
-35.48
-9.00
13.70
31.62
44.80
53.94
59.90
63.44
65.20
65.72
65.51
65.02
64.53
64.14
63.74
63.13
62.22
61.15
60.30
60.09
60.69
61.84
62.86
62.87
61.20
57.69
52.72
47.01
41.31
36.03
31.20
26.47
21.43
15.81
9.64
3.28
-2.76
-8.01
-12.32
-15.87
-19.19
-22.86
-27.24
-32.29
-37.65
-42.82
-47.48
-51.68
-55.85
-60.60
-66.53
-74.01
-83.06
-93.12
-102.91
-110.52
-113.62
-110.15
-99.02
-80.65
-56.98
-31.01
-5.88
16.01
33.43
46.26
55.04
60.41
62.86
62.75
60.49
56.76
52.45
48.53
45.70
44.27
44.12
44.84
45.94
47.03
47.89
48.41
48.54
48.22
47.31
45.59
42.82
38.79
33.50
27.18
20.35
13.66
7.66
2.64
-1.55
-5.37
-9.44
-14.26
-19.95
-26.25
-32.53
-38.12
-42.60
-45.98
-48.80
-51.92
-56.24
-62.51
-70.94
-81.07
-91.60
-100.49
-105.25
-103.65
-94.34
-77.50
-54.89
-29.44
-4.39
17.54
34.86
47.26
55.27
59.76
61.48
60.95
58.61
55.01
50.91
47.15
44.37
42.85
42.41
42.61
43.00
43.35
43.71
44.23
44.95
45.57
45.48
43.97
40.49
34.93
27.72
19.73
11.95
5.20
-0.25
-4.66
-8.75
-13.31
-18.86
-25.43
-32.62
-39.77
-46.26
-51.72
-56.18
-60.08
-64.16
-69.35
-76.44
-85.68
-96.43
-106.94
-114.60
-116.67
-111.10
-97.29
-76.40
-51.01
-24.31
0.72
22.06
38.80
51.02
59.33
64.43
66.90
67.22
65.87
63.46
60.71
58.31
56.72
55.97
55.83
55.86
55.73
55.34
54.79
54.23
53.71
53.04
51.87
49.76
46.38
41.70
35.90
29.42
22.76
16.36
10.47
5.14
0.24
-4.52
-9.43
-14.72
-20.54
-26.89
-33.55
-40.19
-46.41
-51.90
-56.63
-60.90
-65.41
-70.97
-78.33
-87.80
-98.93
-110.28
-119.53
-123.99
-121.24
-110.08
-90.95
-65.95
-38.24
-11.09
12.88
32.27
46.75
56.81
63.22
66.76
68.13
67.89
66.58
64.72
62.76
61.07
59.89
59.30
59.24
59.50
59.85
60.12
60.17
59.95
59.41
58.39
56.70
54.12
50.55
46.04
40.74
34.91
28.77
22.51
16.29
10.25
4.53
-0.80
-5.78
-10.62
-15.56
-20.77
-26.25
-31.81
-37.14
-41.95
-46.22
-50.19
-54.36
-59.36
-65.79
-74.07
-84.20
-95.55
-106.69
-115.44
-119.24
-115.88
-104.27
-84.96
-60.18
-33.12
-7.10
15.40
33.14
46.02
54.67
59.86
62.27
62.43
60.83
58.06
54.79
51.67
49.18
47.52
46.60
46.17
46.02
46.07
46.42
47.20
48.35
49.48
49.89
48.80
45.67
40.44
33.59
25.95
18.43
11.68
5.92
0.96
-3.68
-8.58
-14.14
-20.43
-27.12
-33.57
-39.09
-43.27
-46.24
-48.68
-51.63
-56.17
-63.02
-72.25
-82.99
-93.44
-101.08
-103.31
-98.17
-85.07
-65.10
-40.77
-15.34
8.14
27.58
42.04
51.59
56.84
58.60
57.61
54.68
50.69
46.54
43.03
40.65
39.48
39.27
39.59
40.03
40.36
40.54
40.63
40.70
40.66
40.20
38.86
36.19
31.90
26.09
19.25
12.02
4.98
-1.65
-7.98
-14.31
-20.82
-27.42
-33.73
-39.31
-43.92
-47.67
-51.05
-54.81
-59.78
-66.65
-75.72
-86.63
-98.04
-107.71
-112.86
-110.96
-100.68
-82.47
-58.52
-32.14
-6.73
15.17
32.35
44.86
53.47
59.10
62.45
63.94
63.88
62.66
60.75
58.69
56.91
55.64
54.83
54.29
53.79
53.19
52.52
51.89
51.38
50.87
49.99
48.15
44.80
39.66
32.91
25.20
17.46
10.47
4.58
-0.41
-5.16
-10.46
-16.85
-24.38
-32.57
-40.57
-47.53
-52.96
-56.93
-60.10
-63.55
-68.47
-75.78
-85.67
-97.42
-109.16
-118.21
-121.64
-117.09
-103.66
-82.31
-55.72
-27.52
-1.17
20.92
37.79
49.81
57.98
63.41
66.87
68.81
69.48
69.14
68.16
66.95
65.83
64.96
64.32
63.78
63.21
62.52
61.71
60.80
59.79
58.64
57.21
55.22
52.45
48.67
43.77
37.81
31.00
23.72
16.43
9.62
3.69
-1.20
-5.19
-8.78
-12.63
-17.32
-23.08
-29.68
-36.58
-43.18
-49.08
-54.29
-59.14
-64.16
-69.95
-77.05
-85.79
-96.02
-106.71
-115.91
-120.96
-119.28
-109.24
-90.96
-66.35
-38.62
-11.27
12.81
31.97
45.83
54.94
60.33
63.05
63.92
63.55
62.37
60.79
59.23
58.09
57.56
57.55
57.70
57.63
57.06
56.04
54.88
53.94
53.35
52.95
52.21
50.47
47.21
42.19
35.61
28.06
20.32
13.10
6.85
1.62
-2.93
-7.32
-12.01
-17.18
-22.73
-28.29
-33.49
-38.04
-41.93
-45.46
-49.13
-53.56
-59.38
-67.05
-76.58
-87.33
-97.75
-105.57
-108.23
-103.73
-91.40
-72.24
-48.71
-23.92
-0.73
19.00
34.54
45.97
53.73
58.23
59.81
58.89
56.08
52.24
48.33
45.15
43.20
42.56
42.95
43.88
44.84
45.49
45.73
45.64
45.34
44.78
43.65
41.48
37.79
32.37
25.47
17.69
9.95
3.07
-2.46
-6.68
-10.16
-13.72
-18.07
-23.52
-29.83
-36.38
-42.45
-47.57
-51.74
-55.37
-59.22
-64.14
-70.87
-79.80
-90.63
-102.17
-112.21
-117.92
-116.63
-106.79
-88.64
-64.28
-37.07
-10.56
12.49
30.71
44.00
53.08
58.94
62.48
64.38
65.12
65.05
64.37
63.20
61.62
59.78
57.94
56.43
55.55
55.39
55.95
57.03
58.31
59.31
59.50
58.32
55.41
50.75
44.72
37.97
31.17
24.76
18.97
13.74
8.95
4.45
0.15
-4.09
-8.41
-12.96
-17.87
-23.20
-29.01
-35.25
-41.73
-48.11
-53.98
-59.04
-63.34
-67.39
-72.07
-78.45
-87.24
-98.43
-110.95
-122.72
-130.88
-132.59
-125.81
-110.06
-86.66
-58.46
-29.05
-1.78
21.05
38.52
50.87
59.07
64.27
67.39
69.11
69.85
69.94
69.67
69.27
68.85
68.42
67.90
67.23
66.49
65.88
65.71
66.10
66.88
67.54
67.39
65.75
62.31
57.22
51.06
44.59
38.47
32.98
27.97
23.02
17.75
12.02
6.05
0.33
-4.69
-8.82
-12.28
-15.56
-19.28
-23.86
-29.36
-35.48
-41.68
-47.43
-52.45
-56.82
-61.02
-65.82
-72.07
-80.38
-90.81
-102.49
-113.58
-121.44
-123.35
-117.24
-102.53
-80.41
-53.56
-25.41
0.87
23.04
40.19
52.45
60.55
65.34
67.42
67.24
65.18
61.80
57.77
53.87
50.77
48.80
47.97
48.03
48.72
49.79
51.08
52.44
53.62
54.26
53.92
52.22
48.89
43.90
37.45
30.05
22.34
15.01
8.56
3.16
-1.39
-5.56
-9.85
-14.65
-20.08
-25.96
-31.92
-37.50
-42.28
-46.10
-49.13
-51.89
-55.22
-60.03
-67.00
-76.25
-87.13
-98.01
-106.56
-110.14
-106.58
-94.90
-75.73
-51.26
-24.61
1.06
23.35
41.01
53.78
62.07
66.39
67.23
65.15
60.87
55.40
49.91
45.37
42.34
40.85
40.48
40.71
41.10
41.50
41.99
42.71
43.62
44.39
44.39
42.89
39.34
33.64
26.20
17.84
9.52
2.06
-4.18
-9.37
-14.07
-18.97
-24.57
-30.98
-37.80
-44.39
-50.11
-54.67
-58.30
-61.73
-65.99
-72.06
-80.43
-90.79
-101.77
-111.13
-116.12
-114.28
-104.20
-86.07
-61.73
-34.23
-6.90
17.44
37.07
51.50
61.19
67.05
70.06
70.97
70.30
68.45
65.81
62.85
60.11
57.98
56.64
56.01
55.82
55.84
55.96
56.16
56.43
56.58
56.21
54.87
52.19
48.08
42.76
36.60
30.02
23.28
16.54
9.90
3.47
-2.63
-8.30
-13.59
-18.65
-23.75
-29.12
-34.88
-40.93
-47.03
-52.86
-58.22
-63.14
-68.00
-73.50
-80.42
-89.34
-100.20
-112.01
-122.76
-129.76
-130.32
-122.52
-105.98
-82.06
-53.60
-24.12
3.15
26.05
43.72
56.44
65.05
70.50
73.54
74.72
74.49
73.36
71.85
70.38
69.16
68.16
67.25
66.31
65.37
64.61
64.26
64.44
65.02
65.61
65.59
64.33
61.41
56.81
50.94
44.50
38.26
32.70
27.89
23.46
18.91
13.79
8.05
2.02
-3.78
-8.84
-13.01
-16.51
-19.93
-23.91
-28.89
-34.90
-41.58
-48.36
-54.65
-60.14
-64.89
-69.36
-74.26
-80.41
-88.42
-98.35
-109.37
-119.63
-126.51
-127.24
-119.78
-103.60
-80.00
-51.82
-22.60
4.38
26.88
43.97
55.82
63.19
67.02
68.11
67.12
64.65
61.35
57.92
54.93
52.77
51.54
51.10
51.23
51.76
52.58
53.60
54.68
55.57
55.92
55.40
53.73
50.77
46.51
41.07
34.63
27.49
20.02
12.68
5.83
-0.26
-5.50
-9.95
-13.83
-17.46
-21.20
-25.35
-30.06
-35.23
-40.55
-45.63
-50.27
-54.57
-59.00
-64.22
-70.84
-79.13
-88.75
-98.49
-106.41
-110.17
-107.61
-97.52
-80.11
-57.10
-31.28
-5.62
17.46
36.50
51.00
61.03
66.91
69.01
67.80
63.97
58.54
52.69
47.52
43.87
42.10
42.08
43.31
45.12
46.92
48.32
49.21
49.65
49.70
49.26
47.98
45.50
41.50
35.98
29.25
21.88
14.49
7.55
1.32
-4.22
-9.30
-14.18
-19.18
-24.51
-30.26
-36.29
-42.29
-47.84
-52.62
-56.60
-60.20
-64.25
-69.72
-77.38
-87.37
-98.91
-110.23
-118.91
-122.41
-118.80
-107.33
-88.66
-64.75
-38.25
-11.92
12.00
32.03
47.56
58.62
65.70
69.56
71.03
70.89
69.76
68.06
66.02
63.83
61.66
59.69
58.14
57.22
57.03
57.54
58.54
59.66
60.41
60.27
58.82
55.91
51.66
46.42
40.63
34.63
28.57
22.44
16.20
9.92
3.85
-1.66
-6.44
-10.56
-14.42
-18.54
-23.36
-29.02
-35.31
-41.79
-47.97
-53.53
-58.39
-62.76
-67.13
-72.20
-78.74
-87.31
-97.79
-109.17
-119.40
-125.85
-125.92
-117.97
-101.85
-78.95
-51.89
-23.79
2.55
25.13
42.97
56.01
64.74
69.92
72.31
72.57
71.28
69.04
66.37
63.79
61.67
60.21
59.46
59.39
59.89
60.80
61.92
62.94
63.50
63.27
62.00
59.53
55.83
51.02
45.41
39.44
33.55
28.02
22.85
17.79
12.53
6.98
1.33
-3.98
-8.60
-12.50
-15.99
-19.58
-23.70
-28.46
-33.63
-38.83
-43.74
-48.28
-52.64
-57.22
-62.56
-69.21
-77.54
-87.44
-98.02
-107.48
-113.33
-113.07
-104.98
-88.88
-66.30
-40.07
-13.47
10.66
30.56
45.64
56.08
62.35
64.91
64.19
60.75
55.45
49.47
44.03
40.08
38.02
37.70
38.59
40.03
41.51
42.76
43.71
44.33
44.51
44.01
42.45
39.49
34.99
29.10
22.33
15.42
9.06
3.61
-1.04
-5.41
-10.15
-15.70
-22.08
-28.81
-35.21
-40.65
-44.83
-47.91
-50.44
-53.21
-57.07
-62.78
-70.73
-80.73
-91.71
-101.69
-108.03
-108.13
-100.27
-84.27
-61.65
-35.26
-8.45
15.86
35.74
50.44
60.15
65.59
67.56
66.80
63.96
59.69
54.77
50.07
46.36
44.14
43.52
44.15
45.46
46.83
47.83
48.26
48.07
47.26
45.81
43.63
40.58
36.51
31.38
25.22
18.34
11.17
4.26
-2.09
-7.85
-13.38
-19.21
-25.74
-32.95
-40.42
-47.45
-53.43
-58.16
-61.89
-65.28
-69.12
-74.23
-81.25
-90.54
-101.73
-113.57
-123.74
-129.24
-127.20
-115.99
-95.83
-68.94
-38.87
-9.36
16.66
37.67
53.40
64.41
71.53
75.52
77.06
76.83
75.56
73.92
72.44
71.42
70.85
70.51
70.15
69.60
68.81
67.86
66.86
65.83
64.59
62.80
60.10
56.26
51.35
45.68
39.71
33.79
28.08
22.50
16.90
11.22
5.58
0.28
-4.48
-8.70
-12.72
-16.98
-21.88
-27.51
-33.63
-39.77
-45.46
-50.46
-54.88
-59.17
-63.96
-69.97
-77.79
-87.57
-98.77
-109.90
-118.59
-122.04
-117.87
-104.97
-84.04
-57.53
-28.92
-1.73
21.41
39.22
51.70
59.72
64.41
66.78
67.56
67.20
66.05
64.41
62.61
60.95
59.62
58.68
58.04
57.64
57.44
57.53
58.03
58.90
59.84
60.24
59.38
56.67
51.96
45.66
38.52
31.39
24.80
18.90
13.47
8.28
3.25
-1.45
-5.58
-9.10
-12.26
-15.58
-19.55
-24.37
-29.85
-35.48
-40.72
-45.19
-48.87
-52.09
-55.54
-60.05
-66.40
-74.96
-85.40
-96.46
-105.97
-111.36
-110.30
-101.50
-85.21
-63.16
-38.20
-13.38
8.78
26.83
40.41
49.90
55.96
59.11
59.70
58.01
54.50
49.86
44.96
40.57
37.31
35.48
35.09
35.93
37.60
39.63
41.53
42.90
43.46
43.10
41.67
39.03
35.09
29.86
23.70
17.25
11.27
6.36
2.72
0.02
-2.43
-5.37
-9.34
-14.44
-20.41
-26.65
-32.53
-37.56
-41.55
-44.70
-47.57
-50.90
-55.44
-61.67
-69.52
-78.13
-85.83
-90.38
-89.59
-82.01
-67.57
-47.59
-24.51
-1.07
20.38
38.35
52.22
62.01
67.96
70.42
69.82
66.80
62.21
57.10
52.37
48.63
46.07
44.56
43.77
43.43
43.39
43.60
43.99
44.37
44.38
43.54
41.40
37.71
32.53
26.23
19.37
12.53
6.04
-0.03
-5.93
-11.99
-18.39
-25.08
-31.74
-37.95
-43.44
-48.24
-52.71
-57.53
-63.41
-70.91
-80.10
-90.24
-99.75
-106.41
-107.86
-102.35
-89.34
-69.83
-46.15
-21.27
2.04
21.81
37.18
48.26
55.59
59.80
61.34
60.53
57.69
53.34
48.15
42.87
38.19
34.59
32.25
31.14
31.01
31.49
32.23
32.91
33.26
33.05
31.97
29.65
25.78
20.24
13.15
4.98
-3.71
-12.37
-20.61
-28.21
-35.10
-41.30
-46.97
-52.42
-58.13
-64.66
-72.44
-81.59
-91.63
-101.35
-108.88
-111.98
-108.68
-97.91
-80.12
-57.18
-31.93
-7.31
14.42
32.11
45.56
55.14
61.26
64.28
64.48
62.36
58.67
54.34
50.28
47.02
44.72
43.15
41.97
40.88
39.75
38.60
37.48
36.41
35.22
33.53
30.84
26.72
20.87
13.35
4.55
-4.85
-14.12
-22.64
-30.10
-36.59
-42.54
-48.62
-55.62
-64.13
-74.31
-85.46
-95.99
-103.57
-105.66
-100.32
-86.92
-66.43
-41.24
-14.45
10.96
32.82
50.05
62.54
70.81
75.60
77.67
77.67
76.17
73.77
71.02
68.38
66.16
64.40
62.94
61.60
60.27
59.06
58.21
57.96
58.25
58.66
58.40
56.65
52.89
47.23
40.37
33.30
26.88
21.45
16.76
12.24
7.35
1.91
-3.88
-9.64
-15.04
-19.99
-24.73
-29.63
-35.02
-41.04
-47.53
-54.12
-60.34
-65.88
-70.80
-75.59
-81.04
-87.99
-97.08
-108.23
-120.56
-132.23
-140.64
-142.95
-136.88
-121.45
-97.61
-68.07
-36.53
-6.58
19.21
39.77
55.26
66.50
74.33
79.40
82.14
82.93
82.15
80.20
77.48
74.34
71.20
68.55
66.78
66.12
66.47
67.45
68.58
69.45
69.73
69.26
67.87
65.34
61.53
56.39
50.17
43.41
36.75
30.76
25.73
21.59
17.90
14.13
9.86
5.02
-0.08
-4.95
-9.13
-12.55
-15.51
-18.57
-22.29
-27.01
-32.70
-39.08
-45.75
-52.37
-58.67
-64.51
-69.84
-74.75
-79.62
-85.04
-91.81
-100.57
-111.24
-122.70
-132.62
-137.88
-135.56
-123.89
-103.02
-75.14
-43.79
-12.85
14.56
36.65
52.97
63.98
70.61
73.83
74.51
73.45
71.41
69.05
66.85
65.08
63.78
62.79
61.95
61.16
60.45
59.99
59.94
60.30
60.86
61.15
60.58
58.68
55.21
50.28
44.26
37.60
30.69
23.85
17.20
10.84
4.84
-0.71
-5.72
-10.10
-13.87
-17.21
-20.49
-24.24
-28.87
-34.56
-41.04
-47.65
-53.63
-58.41
-61.96
-64.85
-68.10
-72.86
-79.99
-89.53
-100.48
-110.71
-117.36
-117.56
-109.36
-92.52
-68.61
-40.64
-12.18
13.66
34.86
50.59
60.98
66.68
68.47
67.21
63.78
59.20
54.41
50.25
47.20
45.42
44.75
44.91
45.58
46.57
47.71
48.89
49.93
50.55
50.44
49.34
47.04
43.54
38.92
33.36
27.14
20.55
13.89
7.52
1.71
-3.34
-7.63
-11.43
-15.18
-19.39
-24.42
-30.32
-36.76
-43.19
-48.97
-53.71
-57.43
-60.58
-63.99
-68.68
-75.47
-84.68
-95.78
-107.18
-116.43
-120.72
-117.67
-106.09
-86.45
-60.82
-32.26
-4.05
21.05
41.33
56.17
65.75
70.80
72.25
71.03
68.04
64.15
60.13
56.61
54.00
52.44
51.86
52.00
52.61
53.48
54.54
55.72
56.95
57.98
58.37
57.64
55.37
51.43
46.07
39.91
33.63
27.81
22.66
17.99
13.40
8.52
3.21
-2.33
-7.74
-12.71
-17.16
-21.35
-25.78
-30.87
-36.77
-43.26
-49.76
-55.65
-60.56
-64.57
-68.17
-72.19
-77.48
-84.79
-94.37
-105.82
-117.79
-127.98
-133.49
-131.60
-120.62
-100.64
-73.65
-43.04
-12.55
14.67
36.69
52.94
63.83
70.28
73.33
73.91
72.81
70.70
68.19
65.78
63.78
62.30
61.26
60.45
59.75
59.18
59.03
59.56
60.87
62.68
64.30
64.86
63.64
60.39
55.32
49.10
42.51
36.20
30.53
25.46
20.70
15.84
10.57
4.86
-1.04
-6.64
-11.46
-15.27
-18.29
-21.10
-24.39
-28.70
-34.14
-40.40
-46.86
-52.93
-58.26
-62.86
-67.11
-71.69
-77.40
-84.93
-94.48
-105.46
-116.23
-124.24
-126.62
-121.07
-106.65
-84.29
-56.53
-26.76
1.65
26.21
45.59
59.58
68.64
73.52
75.00
73.79
70.59
66.15
61.24
56.59
52.73
50.02
48.63
48.55
49.67
51.70
54.25
56.78
58.72
59.58
59.04
57.05
53.72
49.31
44.16
38.62
33.00
27.49
22.15
16.88
11.54
6.07
0.59
-4.72
-9.67
-14.24
-18.55
-22.81
-27.21
-31.77
-36.45
-41.12
-45.67
-50.09
-54.50
-59.13
-64.35
-70.63
-78.35
-87.48
-97.29
-106.16
-111.80
-111.76
-104.24
-88.81
-66.65
-40.33
-13.02
12.34
33.77
50.37
62.12
69.38
72.57
72.10
68.51
62.60
55.48
48.44
42.59
38.66
36.88
37.00
38.55
40.91
43.56
46.03
48.00
49.14
49.23
48.04
45.50
41.71
36.97
31.69
26.25
20.87
15.58
10.26
4.83
-0.72
-6.36
-12.04
-17.76
-23.61
-29.61
-35.65
-41.46
-46.68
-51.08
-54.64
-57.68
-60.81
-64.81
-70.41
-78.08
-87.77
-98.54
-108.63
-115.61
-116.94
-110.69
-96.25
-74.56
-47.95
-19.57
7.47
30.74
48.88
61.58
69.27
72.74
72.84
70.35
66.05
60.81
55.50
50.94
47.69
45.97
45.63
46.36
47.86
49.83
52.03
54.17
55.80
56.45
55.74
53.54
50.03
45.56
40.62
35.58
30.67
25.86
21.00
15.85
10.23
4.14
-2.16
-8.28
-13.89
-18.85
-23.32
-27.66
-32.24
-37.26
-42.68
-48.26
-53.64
-58.57
-63.02
-67.21
-71.67
-77.18
-84.48
-93.87
-104.79
-115.57
-123.59
-125.98
-120.45
-106.18
-84.14
-56.85
-27.68
0.16
24.24
43.32
57.19
66.31
71.41
73.31
72.79
70.61
67.47
64.03
60.76
57.99
55.84
54.36
53.56
53.46
54.05
55.27
56.93
58.65
59.88
60.06
58.75
55.81
51.52
46.43
41.17
36.14
31.35
26.50
21.14
15.08
8.49
1.90
-4.11
-9.20
-13.47
-17.34
-21.37
-25.91
-31.04
-36.46
-41.82
-46.82
-51.45
-55.92
-60.62
-65.98
-72.39
-80.06
-88.90
-98.23
-106.69
-112.18
-112.40
-105.45
-90.62
-68.86
-42.55
-14.89
11.01
32.95
49.90
61.82
69.16
72.56
72.53
69.65
64.62
58.37
52.02
46.52
42.61
40.61
40.47
41.85
44.21
46.96
49.48
51.28
52.07
51.74
50.33
47.92
44.52
40.14
34.82
28.74
22.22
15.75
9.70
4.32
-0.43
-4.83
-9.21
-13.90
-19.05
-24.58
-30.17
-35.45
-40.06
-43.89
-47.09
-50.11
-53.53
-58.00
-64.03
-71.95
-81.53
-91.85
-101.09
-106.81
-106.54
-98.56
-82.65
-60.26
-34.18
-7.66
16.51
36.57
51.90
62.64
69.27
72.22
71.84
68.56
63.15
56.66
50.27
45.04
41.59
40.06
40.14
41.40
43.44
45.93
48.57
51.01
52.72
53.18
52.03
49.17
44.89
39.72
34.24
28.90
23.89
19.14
14.38
9.36
3.98
-1.70
-7.42
-12.95
-18.15
-23.08
-27.91
-32.81
-37.77
-42.70
-47.45
-51.89
-56.08
-60.24
-64.72
-69.99
-76.61
-85.05
-95.35
-106.75
-117.44
-124.73
-125.76
-118.40
-102.12
-78.26
-49.75
-20.20
7.12
29.97
47.43
59.69
67.58
72.02
73.84
73.65
71.93
69.23
66.16
63.32
61.15
59.81
59.14
58.91
58.98
59.43
60.48
62.28
64.65
67.05
68.71
68.80
66.83
62.74
56.94
50.17
43.26
36.87
31.24
26.20
21.25
15.84
9.66
2.81
-4.22
-10.77
-16.24
-20.35
-23.29
-25.66
-28.28
-31.92
-36.98
-43.37
-50.49
-57.50
-63.68
-68.71
-72.82
-76.62
-80.96
-86.64
-94.17
-103.38
-113.19
-121.49
-125.49
-122.47
-110.75
-90.46
-63.66
-33.76
-4.41
21.40
41.97
56.84
66.33
71.12
72.01
69.84
65.62
60.46
55.43
51.40
48.87
47.90
48.23
49.39
50.88
52.31
53.49
54.35
54.85
54.90
54.26
52.71
50.13
46.62
42.41
37.80
32.96
27.88
22.43
16.51
10.19
3.72
-2.56
-8.27
-13.23
-17.48
-21.30
-25.07
-29.13
-33.63
-38.47
-43.41
-48.17
-52.65
-56.98
-61.52
-66.74
-73.10
-80.79
-89.41
-97.81
-104.01
-105.66
-100.69
-88.10
-68.53
-44.14
-17.92
7.15
28.87
46.05
58.39
66.04
69.34
68.83
65.23
59.60
53.19
47.25
42.80
40.36
39.94
41.05
42.96
44.95
46.56
47.64
48.22
48.40
48.11
47.14
45.23
42.28
38.35
33.64
28.32
22.50
16.21
9.59
2.95
-3.32
-8.88
-13.62
-17.71
-21.51
-25.46
-29.90
-34.90
-40.40
-46.16
-51.87
-57.35
-62.54
-67.65
-73.17
-79.67
-87.63
-97.01
-107.00
-115.87
-121.24
-120.61
-112.26
-95.84
-72.66
-45.41
-17.34
8.65
30.65
47.83
60.22
68.26
72.49
73.51
72.02
68.88
65.01
61.18
57.87
55.36
53.71
52.92
52.91
53.56
54.59
55.65
56.39
56.53
55.88
54.31
51.75
48.28
44.16
39.73
35.25
30.80
26.15
20.94
14.95
8.26
1.29
-5.40
-11.39
-16.54
-21.05
-25.37
-29.90
-34.89
-40.33
-45.95
-51.41
-56.43
-60.99
-65.42
-70.48
-76.91
-85.24
-95.35
-106.18
-115.75
-121.53
-121.10
-112.84
-96.49
-73.40
-46.16
-17.96
8.34
30.68
48.10
60.51
68.36
72.28
73.01
71.36
68.19
64.45
60.94
58.23
56.59
55.99
56.17
56.81
57.58
58.23
58.60
58.61
58.19
57.24
55.64
53.25
50.10
46.30
42.06
37.53
32.78
27.68
22.11
16.06
9.69
3.35
-2.64
-8.08
-12.95
-17.38
-21.57
-25.71
-29.93
-34.26
-38.67
-43.09
-47.47
-51.91
-56.71
-62.39
-69.51
-78.27
-88.27
-98.17
-105.79
-108.63
-104.62
-92.83
-73.93
-50.05
-24.22
0.57
22.07
39.17
51.74
60.15
64.91
66.34
64.71
60.52
54.65
48.32
42.78
38.96
37.20
37.22
38.36
39.85
41.20
42.23
42.99
43.57
43.89
43.63
42.33
39.61
35.33
29.76
23.39
16.83
10.59
4.87
-0.40
-5.49
-10.74
-16.38
-22.42
-28.64
-34.59
-39.74
-43.72
-46.55
-48.71
-51.11
-54.84
-60.78
-69.27
-79.79
-90.81
-99.98
-104.57
-102.25
-91.83
-73.80
-50.27
-24.39
0.60
22.19
39.13
51.24
59.04
63.22
64.41
63.15
60.04
55.77
51.14
46.87
43.53
41.34
40.29
40.12
40.54
41.24
42.06
42.95
43.90
44.79
45.29
44.84
42.83
38.83
32.85
25.42
17.47
10.01
3.74
-1.19
-5.25
-9.28
-14.07
-20.02
-26.99
-34.37
-41.46
-47.73
-53.04
-57.63
-62.00
-66.77
-72.58
-79.97
-89.11
-99.43
-109.41
-116.67
-118.47
-112.64
-98.44
-76.93
-50.68
-23.00
3.01
25.20
42.55
55.03
63.13
67.58
69.16
68.68
66.94
64.73
62.60
60.78
59.28
57.93
56.64
55.47
54.68
54.53
55.07
56.14
57.30
57.98
57.70
56.22
53.53
49.76
45.16
39.95
34.28
28.28
22.05
15.71
9.43
3.47
-1.92
-6.55
-10.48
-14.04
-17.72
-22.09
-27.44
-33.68
-40.43
-47.08
-53.10
-58.24
-62.59
-66.56
-70.81
-76.11
-83.23
-92.48
-103.39
-114.41
-122.92
-125.87
-120.78
-106.68
-84.62
-57.46
-28.85
-2.20
20.30
37.82
50.64
59.50
65.16
68.15
68.92
68.03
66.16
64.02
62.17
60.85
59.96
59.31
58.76
58.33
58.22
58.67
59.72
61.14
62.34
62.62
61.36
58.31
53.71
48.19
42.46
37.03
32.05
27.26
22.30
16.91
11.20
5.53
0.41
-3.93
-7.63
-11.18
-15.19
-20.06
-25.80
-32.01
-38.07
-43.38
-47.64
-50.97
-53.87
-57.16
-61.71
-68.29
-77.24
-88.14
-99.63
-109.44
-114.83
-113.31
-103.43
-85.42
-61.16
-33.72
-6.46
17.82
37.35
51.55
60.63
65.28
66.29
64.47
60.69
55.88
50.95
46.65
43.46
41.52
40.71
40.75
41.37
42.32
43.41
44.47
45.42
46.21
46.74
46.75
45.86
43.55
39.45
33.55
26.27
18.35
10.67
3.88
-1.72
-6.24
-10.09
-13.79
-17.75
-22.26
-27.29
-32.59
-37.78
-42.49
-46.57
-50.20
-53.78
-57.94
-63.33
-70.42
-79.20
-88.90
-97.84
-103.66
-103.83
-96.54
-81.41
-59.81
-34.40
-8.38
15.42
35.18
50.11
60.24
66.02
68.01
66.84
63.25
58.14
52.46
47.19
43.08
40.51
39.42
39.44
39.98
40.56
40.93
41.10
41.22
41.25
40.96
39.95
37.79
34.27
29.48
23.76
17.57
11.34
5.34
-0.43
-6.13
-12.07
-18.53
-25.51
-32.77
-39.78
-46.02
-51.12
-55.12
-58.45
-61.85
-66.17
-72.16
-80.29
-90.43
-101.58
-111.75
-118.31
-118.59
-110.88
-95.00
-72.49
-46.13
-19.12
5.80
26.81
43.14
54.82
62.36
66.47
67.89
67.32
65.38
62.68
59.72
56.95
54.67
53.03
52.00
51.55
51.62
52.13
52.92
53.74
54.16
53.76
52.23
49.50
45.68
41.00
35.66
29.77
23.43
16.75
9.92
3.10
-3.59
-10.17
-16.76
-23.50
-30.55
-37.94
-45.60
-53.26
-60.52
-67.04
-72.73
-77.80
-82.82
-88.55
-95.67
-104.59
-115.26
-126.93
-138.01
-146.07
-148.28
-142.12
-126.25
-101.18
-69.29
-34.19
0.25
30.91
56.00
75.06
88.51
97.17
101.89
103.39
102.36
99.55
95.74
91.69
87.99
84.91
82.44
80.37
78.53
76.90
75.62
74.81
74.40
74.02
73.12
71.19
67.99
63.59
58.36
52.66
46.74
40.60
34.11
27.20
19.98
12.80
6.13
0.29
-4.69
-9.21
-13.82
-19.11
-25.25
-31.92
-38.46
-44.19
-48.84
-52.70
-56.58
-61.50
-68.29
-77.24
-87.92
-99.08
-108.71
-114.40
-113.86
-105.58
-89.42
-66.84
-40.53
-13.67
10.93
31.42
47.08
58.06
64.90
68.26
68.73
66.93
63.48
59.15
54.68
50.71
47.73
45.93
45.27
45.43
46.04
46.84
47.71
48.66
49.69
50.58
50.84
49.85
47.13
42.54
36.40
29.38
22.26
15.73
10.12
5.42
1.29
-2.85
-7.51
-12.99
-19.25
-25.88
-32.24
-37.73
-42.05
-45.32
-48.09
-51.20
-55.48
-61.57
-69.64
-79.15
-88.79
-96.55
-100.10
-97.44
-87.58
-70.95
-49.38
-25.52
-2.08
18.80
35.90
48.79
57.47
62.14
63.10
60.84
56.16
50.06
43.61
37.75
33.11
30.05
28.68
28.86
30.31
32.58
35.17
37.52
39.17
39.64
38.50
35.49
30.62
24.34
17.42
10.72
4.86
-0.07
-4.54
-9.27
-14.80
-21.22
-28.13
-34.82
-40.67
-45.50
-49.58
-53.57
-58.26
-64.33
-72.07
-81.22
-90.80
-99.19
-104.29
-103.99
-96.72
-82.10
-61.16
-36.26
-10.50
13.18
32.70
47.15
56.64
61.85
63.57
62.48
59.18
54.41
49.11
44.23
40.53
38.36
37.59
37.83
38.73
40.03
41.62
43.33
44.81
45.52
44.89
42.50
38.30
32.65
26.17
19.55
13.25
7.27
1.24
-5.35
-12.84
-21.08
-29.49
-37.29
-43.88
-49.14
-53.42
-57.41
-61.92
-67.70
-75.22
-84.59
-95.23
-105.67
-113.60
-116.37
-111.75
-98.85
-78.54
-53.32
-26.44
-1.09
20.54
37.46
49.74
58.05
63.25
66.08
67.15
66.89
65.69
63.92
61.92
59.99
58.32
57.02
56.07
55.40
54.99
54.84
54.99
55.42
55.96
56.17
55.42
53.05
48.60
42.03
33.85
24.99
16.53
9.29
3.63
-0.75
-4.57
-8.73
-13.88
-20.30
-27.77
-35.70
-43.34
-50.07
-55.60
-60.04
-63.99
-68.34
-74.05
-81.81
-91.67
-102.78
-113.27
-120.55
-121.92
-115.35
-100.25
-77.74
-50.52
-21.96
4.70
27.21
44.57
56.90
64.89
69.43
71.33
71.23
69.78
67.58
65.24
63.22
61.82
61.11
60.96
61.11
61.21
61.03
60.44
59.52
58.47
57.40
56.31
54.99
53.10
50.31
46.47
41.56
35.74
29.24
22.37
15.46
8.86
2.87
-2.41
-7.12
-11.61
-16.25
-21.25
-26.60
-32.09
-37.39
-42.30
-46.76
-50.93
-55.16
-59.98
-66.02
-73.72
-83.04
-93.07
-101.98
-107.24
-106.41
-97.91
-81.64
-59.18
-33.33
-7.30
16.16
35.30
49.47
58.85
64.00
65.52
64.01
60.14
54.80
49.13
44.33
41.26
40.25
40.97
42.66
44.48
45.80
46.47
46.61
46.48
46.17
45.47
43.93
41.04
36.50
30.40
23.26
15.89
9.08
3.30
-1.46
-5.64
-9.89
-14.74
-20.39
-26.60
-32.86
-38.52
-43.16
-46.68
-49.50
-52.38
-56.22
-61.81
-69.56
-79.13
-89.39
-98.40
-103.73
-103.10
-95.03
-79.48
-58.03
-33.42
-8.81
13.25
31.25
44.89
54.60
60.96
64.44
65.28
63.75
60.39
55.92
51.20
46.93
43.58
41.33
40.16
39.96
40.49
41.53
42.81
44.02
44.75
44.44
42.50
38.49
32.42
24.85
16.84
9.53
3.67
-0.68
-4.16
-7.77
-12.39
-18.51
-26.01
-34.32
-42.55
-49.89
-55.75
-60.05
-63.29
-66.48
-70.83
-77.29
-86.02
-96.09
-105.45
-111.31
-110.99
-102.79
-86.55
-63.87
-37.66
-11.17
12.78
32.50
47.47
57.94
64.48
67.75
68.41
67.21
65.07
62.80
60.97
59.69
58.74
57.80
56.71
55.45
54.09
52.70
51.34
50.01
48.79
47.70
46.57
44.98
42.35
38.20
32.46
25.44
17.75
10.13
3.11
-3.10
-8.52
-13.43
-18.27
-23.44
-29.13
-35.26
-41.38
-47.12
-52.24
-56.92
-61.61
-66.93
-73.41
-81.38
-90.87
-101.42
-111.91
-120.40
-124.44
-121.80
-111.17
-92.88
-68.81
-41.90
-15.20
8.90
29.02
44.79
56.42
64.50
69.67
72.41
73.12
72.14
69.86
66.80
63.66
61.04
59.33
58.58
58.61
59.15
60.01
60.95
61.68
61.76
60.70
58.17
54.27
49.45
44.29
39.23
34.40
29.61
24.57
19.03
12.92
6.41
-0.19
-6.58
-12.49
-17.88
-22.87
-27.70
-32.54
-37.41
-42.20
-46.81
-51.32
-55.96
-61.14
-67.28
-74.66
-83.40
-93.25
-103.43
-112.42
-118.08
-118.05
-110.60
-95.33
-73.48
-47.59
-20.74
4.36
25.94
43.16
55.93
64.44
68.99
70.00
67.98
63.70
58.20
52.65
48.07
45.21
44.30
45.04
46.79
48.83
50.63
51.96
52.68
52.68
51.72
49.56
46.10
41.46
36.01
30.15
24.28
18.63
13.30
8.32
3.50
-1.44
-6.85
-12.98
-19.79
-26.83
-33.43
-38.95
-43.04
-45.85
-47.91
-50.03
-53.14
-58.05
-65.34
-75.00
-86.29
-97.44
-105.98
-109.18
-104.91
-92.39
-72.48
-47.55
-20.84
4.49
26.06
42.65
54.10
60.96
64.02
64.01
61.58
57.37
52.14
46.77
41.99
38.31
35.88
34.58
34.17
34.50
35.47
36.95
38.65
40.03
40.43
39.27
36.21
31.32
25.03
18.00
10.91
4.24
-1.88
-7.63
-13.40
-19.53
-26.12
-32.95
-39.60
-45.65
-50.91
-55.50
-59.88
-64.77
-70.88
-78.68
-87.93
-97.37
-104.81
-107.56
-103.36
-91.19
-71.71
-47.15
-20.51
5.26
27.94
46.23
59.65
68.24
72.41
72.80
70.23
65.65
60.01
54.18
48.86
44.55
41.56
39.93
39.47
39.84
40.63
41.46
41.94
41.70
40.37
37.72
33.70
28.58
22.80
16.80
10.79
4.68
-1.82
-9.00
-16.92
-25.38
-33.94
-42.09
-49.48
-55.98
-61.78
-67.42
-73.65
-81.20
-90.43
-100.80
-110.71
-117.64
-118.75
-111.89
-96.44
-73.61
-46.18
-17.63
8.87
31.21
48.53
60.96
69.08
73.49
74.64
72.97
69.11
63.97
58.65
54.10
50.89
49.01
48.05
47.41
46.58
45.31
43.57
41.51
39.25
36.82
34.11
30.88
26.78
21.47
14.74
6.64
-2.44
-11.86
-20.91
-29.07
-36.19
-42.48
-48.48
-54.86
-62.31
-71.39
-82.17
-94.00
-105.25
-113.47
-115.91
-110.37
-96.07
-74.08
-47.10
-18.65
7.94
30.42
47.90
60.63
69.36
74.80
77.36
77.29
74.98
71.11
66.68
62.61
59.51
57.40
55.83
54.21
52.10
49.46
46.62
44.01
41.91
40.20
38.37
35.67
31.40
25.15
17.00
7.49
-2.59
-12.42
-21.42
-29.34
-36.34
-42.88
-49.65
-57.41
-66.72
-77.55
-88.95
-99.01
-105.19
-105.01
-96.97
-81.07
-58.91
-33.17
-6.88
17.43
38.11
54.46
66.44
74.34
78.55
79.47
77.57
73.50
68.12
62.43
57.34
53.49
51.05
49.70
48.83
47.82
46.28
44.20
41.79
39.33
36.84
34.06
30.45
25.42
18.61
10.13
0.55
-9.22
-18.25
-25.97
-32.33
-37.80
-43.21
-49.42
-57.12
-66.57
-77.48
-88.77
-98.62
-104.63
-104.46
-96.55
-80.74
-58.52
-32.65
-6.29
17.83
37.99
53.52
64.63
71.87
75.88
77.21
76.37
73.86
70.29
66.29
62.55
59.60
57.73
56.89
56.78
56.99
57.20
57.29
57.29
57.16
56.72
55.51
53.12
49.34
44.39
38.77
33.11
27.85
23.05
18.41
13.44
7.78
1.39
-5.34
-11.76
-17.17
-21.23
-24.09
-26.44
-29.19
-33.13
-38.56
-45.21
-52.34
-59.09
-64.83
-69.44
-73.32
-77.28
-82.33
-89.33
-98.62
-109.57
-120.48
-128.64
-130.99
-125.03
-109.73
-86.01
-56.58
-25.18
4.55
29.90
49.54
63.36
71.97
76.24
77.00
75.01
71.15
66.36
61.63
57.75
55.19
53.96
53.72
54.04
54.56
55.06
55.51
55.93
56.25
56.22
55.46
53.60
50.46
46.13
41.03
35.65
30.33
25.17
19.99
14.56
8.81
2.99
-2.51
-7.27
-11.19
-14.48
-17.66
-21.28
-25.70
-30.92
-36.63
-42.36
-47.61
-52.12
-55.94
-59.43
-63.26
-68.22
-74.92
-83.42
-92.88
-101.52
-106.86
-106.40
-98.37
-82.38
-59.67
-32.85
-5.19
20.24
41.15
56.38
65.74
69.72
69.17
65.06
58.50
50.72
43.03
36.62
32.32
30.39
30.48
31.79
33.45
34.77
35.46
35.62
35.47
35.19
34.71
33.65
31.47
27.80
22.55
16.12
9.14
2.29
-4.02
-9.82
-15.47
-21.31
-27.49
-33.75
-39.55
-44.39
-48.05
-50.76
-53.16
-56.10
-60.46
-66.80
-75.20
-85.00
-94.70
-102.13
-104.84
-100.81
-89.13
-70.36
-46.53
-20.53
4.70
26.78
44.32
56.87
64.58
67.90
67.44
63.91
58.19
51.36
44.52
38.63
34.32
31.81
30.93
31.26
32.35
33.83
35.43
36.92
38.02
38.35
37.41
34.77
30.25
24.13
17.05
9.86
3.18
-2.78
-8.34
-14.13
-20.66
-28.12
-36.18
-44.23
-51.53
-57.59
-62.31
-66.05
-69.55
-73.77
-79.64
-87.70
-97.69
-108.35
-117.42
-122.14
-119.98
-109.44
-90.60
-65.19
-36.08
-6.60
20.32
42.67
59.52
70.85
77.19
79.30
78.04
74.34
69.19
63.64
58.65
54.89
52.67
51.84
51.97
52.50
53.00
53.22
53.15
52.87
52.50
51.97
51.02
49.22
46.05
41.18
34.59
26.70
18.22
9.89
2.23
-4.63
-10.96
-17.20
-23.73
-30.69
-37.89
-44.95
-51.45
-57.10
-61.91
-66.19
-70.57
-75.80
-82.67
-91.62
-102.53
-114.37
-125.14
-132.19
-132.80
-124.96
-108.08
-83.38
-53.50
-21.87
8.24
34.44
55.49
71.09
81.53
87.36
89.24
87.99
84.56
80.04
75.40
71.35
68.22
66.06
64.76
64.21
64.35
65.12
66.35
67.74
68.84
69.15
68.25
65.87
61.98
56.80
50.74
44.28
37.84
31.62
25.63
19.68
13.53
7.11
0.60
-5.64
-11.25
-16.10
-20.40
-24.66
-29.44
-35.01
-41.26
-47.75
-53.90
-59.43
-64.43
-69.35
-74.86
-81.54
-89.73
-99.33
-109.61
-119.09
-125.61
-126.61
-119.90
-104.46
-80.92
-51.64
-20.06
10.26
36.53
57.20
71.92
81.12
85.54
85.93
83.01
77.58
70.64
63.32
56.70
51.63
48.55
47.44
47.95
49.54
51.64
53.78
55.58
56.74
57.05
56.33
54.45
51.34
47.05
41.70
35.49
28.69
21.61
14.59
7.88
1.64
-4.08
-9.36
-14.32
-19.07
-23.71
-28.29
-32.87
-37.42
-41.93
-46.34
-50.67
-55.10
-59.99
-65.87
-73.18
-81.98
-91.63
-100.69
-107.04
-108.41
-102.99
-89.98
-70.01
-44.97
-17.60
9.19
32.92
52.03
65.87
74.45
78.16
77.55
73.25
66.09
57.23
48.02
39.86
33.89
30.63
30.07
31.64
34.52
37.88
41.09
43.68
45.32
45.70
44.50
41.47
36.55
30.02
22.57
15.10
8.43
2.91
-1.70
-6.10
-11.17
-17.49
-25.08
-33.37
-41.49
-48.61
-54.25
-58.46
-61.77
-65.00
-69.11
-74.92
-82.81
-92.40
-102.30
-110.18
-113.20
-108.91
-96.04
-75.16
-48.55
-19.58
8.25
32.28
51.07
64.34
72.55
76.42
76.69
74.01
69.13
62.96
56.52
50.82
46.66
44.40
43.95
44.83
46.35
47.90
49.07
49.70
49.82
49.48
48.61
47.00
44.39
40.57
35.52
29.44
22.68
15.65
8.71
2.09
-4.12
-9.98
-15.66
-21.43
-27.50
-33.99
-40.77
-47.51
-53.78
-59.22
-63.70
-67.46
-71.09
-75.47
-81.56
-90.02
-100.75
-112.53
-122.96
-128.89
-127.37
-116.66
-96.88
-70.08
-39.51
-8.71
19.39
42.90
60.93
73.34
80.44
82.87
81.57
77.75
72.73
67.71
63.55
60.68
59.10
58.47
58.39
58.48
58.57
58.66
58.81
58.99
58.98
58.44
57.09
54.79
51.66
47.87
43.61
38.85
33.47
27.32
20.38
12.86
5.17
-2.21
-8.79
-14.25
-18.60
-22.18
-25.64
-29.67
-34.76
-40.92
-47.70
-54.35
-60.24
-65.14
-69.29
-73.43
-78.52
-85.45
-94.68
-105.80
-117.28
-126.56
-130.55
-126.58
-113.32
-91.39
-63.26
-32.46
-2.58
23.65
44.71
60.24
70.63
76.53
78.75
78.10
75.47
71.71
67.65
63.91
60.88
58.69
57.28
56.49
56.17
56.26
56.74
57.59
58.68
59.68
60.08
59.35
57.16
53.50
48.68
43.20
37.49
31.77
26.03
20.16
14.11
8.00
2.11
-3.26
-7.93
-11.97
-15.65
-19.39
-23.61
-28.54
-34.13
-40.07
-45.89
-51.12
-55.56
-59.36
-63.11
-67.68
-73.97
-82.47
-92.85
-103.66
-112.48
-116.38
-112.83
-100.58
-80.18
-53.88
-25.03
2.95
27.36
46.68
60.48
69.03
72.95
72.91
69.64
63.99
57.07
50.10
44.19
40.15
38.29
38.37
39.83
41.99
44.24
46.20
47.61
48.37
48.37
47.55
45.86
43.29
39.82
35.40
30.09
23.96
17.29
10.46
3.90
-2.03
-7.18
-11.65
-15.75
-19.94
-24.62
-29.97
-35.87
-41.90
-47.53
-52.38
-56.38
-59.87
-63.49
-68.02
-74.15
-82.13
-91.55
-101.14
-108.76
-111.84
-108.06
-96.15
-76.45
-50.92
-22.65
5.05
29.43
48.81
62.62
71.11
74.98
75.07
72.25
67.37
61.34
55.02
49.30
44.85
42.09
41.08
41.55
42.98
44.85
46.71
48.26
49.33
49.82
49.56
48.40
46.22
42.94
38.60
33.35
27.40
21.01
14.44
7.92
1.67
-4.14
-9.42
-14.18
-18.57
-22.86
-27.39
-32.40
-37.96
-43.88
-49.75
-55.16
-59.91
-64.07
-68.06
-72.63
-78.57
-86.49
-96.44
-107.60
-118.13
-125.40
-126.62
-119.70
-103.94
-80.48
-51.98
-21.91
6.38
30.47
49.16
62.41
70.83
75.27
76.54
75.33
72.33
68.33
64.13
60.46
57.74
56.02
55.06
54.60
54.52
54.95
56.05
57.78
59.68
61.02
61.06
59.38
56.03
51.45
46.22
40.76
35.25
29.65
23.87
17.90
11.83
5.82
0.04
-5.33
-10.20
-14.59
-18.71
-22.91
-27.63
-33.19
-39.59
-46.54
-53.49
-59.90
-65.42
-70.04
-74.14
-78.47
-84.00
-91.60
-101.58
-113.19
-124.47
-132.45
-133.99
-126.75
-110.13
-85.46
-55.64
-24.35
5.00
29.99
49.34
62.87
71.10
74.93
75.36
73.37
69.92
65.92
62.21
59.41
57.84
57.45
57.90
58.81
59.89
61.08
62.46
64.01
65.50
66.43
66.23
64.53
61.28
56.85
51.82
46.76
42.06
37.78
33.72
29.57
25.07
20.14
14.94
9.76
4.88
0.38
-3.90
-8.36
-13.39
-19.22
-25.74
-32.54
-39.13
-45.07
-50.24
-54.87
-59.47
-64.73
-71.28
-79.43
-88.95
-98.76
-106.97
-111.12
-108.92
-98.95
-81.33
-57.84
-31.40
-5.22
18.08
36.93
50.86
60.11
65.15
66.47
64.50
59.82
53.26
45.93
39.06
33.69
30.42
29.37
30.08
31.82
33.82
35.57
36.86
37.77
38.39
38.59
37.98
36.04
32.36
26.97
20.36
13.34
6.75
1.09
-3.60
-7.66
-11.62
-15.91
-20.72
-25.97
-31.37
-36.59
-41.35
-45.57
-49.43
-53.39
-58.03
-63.93
-71.33
-79.87
-88.48
-95.34
-98.33
-95.49
-85.72
-69.20
-47.48
-23.10
1.12
22.86
40.74
54.25
63.50
68.73
70.14
67.98
62.86
55.88
48.50
42.16
37.80
35.67
35.41
36.34
37.85
39.58
41.43
43.34
45.07
46.19
46.12
44.32
40.50
34.85
27.90
20.47
13.35
7.08
1.77
-2.95
-7.76
-13.32
-19.99
-27.70
-35.89
-43.78
-50.66
-56.19
-60.50
-64.20
-68.16
-73.28
-80.20
-88.93
-98.61
-107.48
-113.09
-112.94
-105.25
-89.68
-67.52
-41.39
-14.46
10.40
31.25
47.30
58.60
65.69
69.14
69.47
67.13
62.75
57.18
51.49
46.73
43.69
42.61
43.16
44.61
46.11
47.06
47.29
46.94
46.30
45.49
44.29
42.27
38.96
34.16
28.11
21.44
14.94
9.23
4.51
0.48
-3.45
-7.97
-13.50
-20.10
-27.43
-34.90
-41.85
-47.83
-52.66
-56.51
-59.90
-63.52
-68.13
-74.30
-82.04
-90.59
-98.26
-102.72
-101.56
-93.15
-77.17
-54.90
-28.80
-1.82
23.40
44.98
62.04
74.43
82.50
86.87
88.24
87.35
84.91
81.58
77.97
74.57
71.73
69.56
67.99
66.83
65.88
65.09
64.44
63.89
63.23
62.09
60.17
57.29
53.59
49.30
44.65
39.69
34.28
28.30
21.75
14.89
8.13
1.82
-3.77
-8.65
-13.04
-17.33
-21.89
-27.01
-32.68
-38.64
-44.42
-49.58
-53.91
-57.55
-60.99
-64.92
-70.10
-77.09
-86.00
-96.08
-105.64
-112.16
-112.89
-105.77
-90.22
-67.56
-40.66
-13.09
11.98
32.47
47.65
57.75
63.41
65.30
64.00
60.19
54.73
48.73
43.32
39.32
37.05
36.28
36.46
37.05
37.75
38.55
39.59
40.89
42.19
42.90
42.31
39.84
35.33
29.07
21.77
14.29
7.29
1.06
-4.58
-10.14
-16.17
-23.01
-30.50
-38.05
-44.86
-50.23
-53.93
-56.34
-58.44
-61.50
-66.71
-74.72
-85.23
-96.85
-107.17
-113.28
-112.50
-103.25
-85.57
-61.19
-33.04
-4.49
21.50
42.88
58.69
68.89
73.96
74.71
72.01
66.83
60.17
53.04
46.38
40.95
37.22
35.31
35.02
35.89
37.28
38.58
39.26
39.05
37.80
35.56
32.47
28.71
24.42
19.73
14.67
9.08
2.69
-4.80
-13.43
-22.89
-32.47
-41.24
-48.46
-53.90
-57.92
-61.39
-65.42
-71.02
-78.86
-88.86
-99.90
-109.78
-115.56
-114.36
-104.37
-85.66
-60.30
-31.75
-3.70
21.00
40.82
55.55
65.64
71.70
74.25
73.76
70.87
66.48
61.63
57.20
53.69
51.15
49.30
47.86
46.66
45.79
45.44
45.73
46.47
47.19
47.17
45.69
42.27
36.89
30.00
22.37
14.85
8.01
1.93
-3.75
-9.70
-16.47
-24.26
-32.73
-41.16
-48.76
-55.04
-59.99
-64.21
-68.68
-74.48
-82.37
-92.38
-103.55
-113.86
-120.63
-121.19
-113.68
-97.73
-74.68
-47.23
-18.64
8.11
30.94
48.89
61.92
70.49
75.27
76.93
76.14
73.61
70.09
66.27
62.71
59.78
57.62
56.23
55.54
55.43
55.79
56.47
57.25
57.86
57.95
57.18
55.26
52.06
47.58
41.98
35.56
28.67
21.67
14.86
8.41
2.35
-3.38
-8.98
-14.62
-20.52
-26.79
-33.40
-40.23
-46.98
-53.29
-58.85
-63.59
-67.82
-72.20
-77.64
-84.97
-94.60
-106.04
-117.87
-127.71
-132.77
-130.54
-119.59
-100.09
-73.90
-44.08
-14.05
13.26
35.95
53.27
65.36
72.90
76.72
77.68
76.59
74.20
71.14
67.87
64.75
62.02
59.82
58.33
57.64
57.78
58.66
60.07
61.69
63.11
63.80
63.26
61.17
57.49
52.52
46.78
40.79
34.90
29.18
23.43
17.44
11.14
4.63
-1.76
-7.68
-12.91
-17.45
-21.58
-25.74
-30.36
-35.71
-41.74
-48.07
-54.20
-59.69
-64.44
-68.77
-73.42
-79.34
-87.27
-97.39
-108.85
-119.70
-127.17
-128.37
-121.10
-104.77
-80.61
-51.43
-20.77
8.06
32.68
51.95
65.74
74.52
78.94
79.72
77.59
73.40
68.10
62.67
57.91
54.37
52.25
51.49
51.82
52.89
54.37
55.93
57.31
58.24
58.48
57.78
55.97
53.00
48.98
44.13
38.71
32.97
27.01
20.90
14.68
8.46
2.39
-3.42
-8.98
-14.43
-20.01
-25.83
-31.84
-37.80
-43.37
-48.31
-52.60
-56.52
-60.50
-65.17
-71.09
-78.75
-88.17
-98.72
-108.85
-116.19
-118.11
-112.46
-98.43
-76.96
-50.57
-22.57
3.95
26.83
45.15
58.90
68.48
74.24
76.43
75.34
71.57
65.99
59.67
53.63
48.60
44.97
42.92
42.47
43.45
45.61
48.47
51.44
53.87
55.10
54.70
52.51
48.70
43.71
38.13
32.49
27.11
22.04
17.10
12.10
6.97
1.67
-3.75
-9.30
-14.98
-20.79
-26.58
-32.14
-37.22
-41.73
-45.71
-49.43
-53.25
-57.62
-62.98
-69.71
-78.06
-87.80
-98.10
-107.34
-113.30
-113.61
-106.54
-91.58
-69.75
-43.47
-15.81
10.25
32.56
50.01
62.38
70.03
73.47
73.23
69.92
64.30
57.43
50.43
44.36
39.91
37.27
36.23
36.38
37.31
38.77
40.63
42.69
44.58
45.73
45.53
43.54
39.70
34.33
28.04
21.51
15.26
9.52
4.28
-0.70
-5.69
-10.94
-16.52
-22.36
-28.16
-33.56
-38.29
-42.22
-45.61
-49.05
-53.31
-59.11
-66.72
-75.67
-84.62
-91.51
-94.10
-90.56
-80.06
-63.13
-41.53
-17.77
5.50
26.13
42.72
54.66
61.89
64.68
63.47
59.00
52.20
44.27
36.47
29.88
25.25
22.89
22.66
24.06
26.36
28.75
30.59
31.53
31.51
30.72
29.35
27.45
24.93
21.63
17.48
12.55
6.88
0.45
-6.80
-14.77
-23.11
-31.12
-37.98
-43.17
-46.73
-49.30
-51.90
-55.64
-61.39
-69.48
-79.45
-89.84
-98.34
-102.15
-98.86
-87.29
-68.01
-43.29
-16.41
9.30
31.24
47.99
59.21
65.41
67.46
66.41
63.24
58.79
53.77
48.72
44.12
40.33
37.52
35.70
34.71
34.41
34.68
35.48
36.71
38.01
38.77
38.30
36.10
32.13
26.81
20.80
14.70
8.71
2.65
-3.84
-11.04
-18.90
-27.00
-34.74
-41.58
-47.25
-51.93
-56.20
-60.90
-66.86
-74.69
-84.25
-94.56
-103.67
-109.10
-108.39
-99.96
-83.70
-61.17
-35.13
-8.76
15.18
34.99
50.15
60.91
67.90
71.65
72.53
70.89
67.27
62.48
57.56
53.44
50.73
49.50
49.37
49.77
50.20
50.44
50.52
50.64
50.93
51.19
50.94
49.50
46.32
41.23
34.60
27.21
19.97
13.50
7.98
3.04
-1.95
-7.58
-14.12
-21.38
-28.79
-35.72
-41.61
-46.29
-49.93
-53.06
-56.40
-60.79
-67.02
-75.56
-86.22
-97.75
-107.80
-113.35
-111.55
-100.79
-81.37
-55.57
-26.95
0.81
24.85
43.66
57.01
65.38
69.54
70.19
68.06
63.91
58.68
53.37
48.84
45.63
43.91
43.41
43.70
44.31
44.95
45.51
46.04
46.56
46.93
46.82
45.75
43.28
39.22
33.67
27.01
19.84
12.74
6.14
0.28
-4.89
-9.67
-14.47
-19.64
-25.39
-31.53
-37.64
-43.15
-47.62
-50.98
-53.61
-56.27
-59.93
-65.42
-73.16
-82.74
-92.82
-101.18
-105.23
-102.69
-92.32
-74.42
-50.82
-24.35
1.86
25.15
43.80
57.12
65.25
68.85
68.80
66.03
61.42
55.85
50.17
45.23
41.75
40.14
40.41
42.09
44.44
46.71
48.35
49.14
49.08
48.27
46.72
44.37
41.13
36.95
31.92
26.26
20.25
14.19
8.33
2.82
-2.34
-7.24
-12.09
-17.09
-22.36
-27.92
-33.64
-39.34
-44.78
-49.80
-54.34
-58.58
-62.88
-67.85
-74.16
-82.33
-92.36
-103.37
-113.51
-120.19
-120.75
-113.26
-97.30
-74.17
-46.59
-17.92
8.72
31.13
48.26
60.09
67.22
70.60
71.19
69.88
67.35
64.16
60.75
57.53
54.91
53.21
52.60
52.94
53.87
54.92
55.74
56.15
56.10
55.52
54.27
52.09
48.86
44.58
39.49
33.96
28.28
22.57
16.82
10.98
5.05
-0.85
-6.55
-11.99
-17.20
-22.32
-27.48
-32.70
-37.84
-42.69
-47.02
-50.79
-54.21
-57.79
-62.22
-68.22
-76.28
-86.32
-97.50
-108.06
-115.63
-117.63
-112.11
-98.43
-77.54
-51.86
-24.57
1.26
23.38
40.70
53.12
61.15
65.48
66.77
65.66
62.87
59.18
55.33
51.98
49.50
47.98
47.38
47.55
48.32
49.48
50.81
52.02
52.88
53.10
52.45
50.73
47.77
43.52
38.15
32.00
25.52
19.12
13.04
7.34
1.93
-3.29
-8.41
-13.53
-18.78
-24.30
-30.13
-36.17
-42.12
-47.64
-52.51
-56.76
-60.72
-65.02
-70.41
-77.57
-86.83
-97.80
-109.00
-118.05
-122.12
-118.79
-106.95
-87.29
-62.09
-34.52
-7.75
15.88
35.07
49.56
59.74
66.29
69.95
71.39
71.16
69.72
67.50
64.90
62.32
60.15
58.66
57.88
57.77
58.21
59.03
60.15
61.37
62.34
62.56
61.45
58.62
54.04
48.12
41.57
35.19
29.52
24.64
20.19
15.60
10.40
4.50
-1.79
-7.88
-13.27
-17.76
-21.55
-25.10
-28.94
-33.43
-38.69
-44.53
-50.61
-56.51
-62.00
-67.07
-72.06
-77.59
-84.40
-93.04
-103.51
-114.96
-125.50
-132.54
-133.38
-126.04
-109.97
-86.44
-58.17
-28.54
-0.70
23.22
42.29
56.49
66.28
72.22
74.86
74.88
73.11
70.46
67.76
65.51
63.92
63.00
62.68
62.94
63.71
64.87
66.16
67.22
67.72
67.39
66.03
63.56
59.98
55.45
50.31
45.00
39.89
35.18
30.71
26.11
20.96
15.02
8.40
1.56
-4.88
-10.33
-14.48
-17.53
-20.09
-22.99
-26.90
-32.09
-38.25
-44.69
-50.69
-55.86
-60.33
-64.72
-69.92
-76.75
-85.61
-96.11
-106.95
-115.92
-120.38
-117.95
-107.34
-88.82
-64.33
-36.79
-9.38
15.31
35.61
50.86
61.07
66.68
68.36
66.97
63.46
58.83
54.02
49.75
46.53
44.57
43.84
44.09
44.92
45.94
46.85
47.48
47.80
47.85
47.50
46.58
44.80
41.87
37.60
32.03
25.44
18.30
11.16
4.44
-1.72
-7.40
-12.89
-18.41
-24.02
-29.52
-34.61
-39.03
-42.72
-45.87
-48.90
-52.34
-56.75
-62.68
-70.49
-80.07
-90.59
-100.34
-106.90
-107.75
-101.07
-86.44
-65.20
-40.07
-14.29
9.27
28.80
43.73
54.33
61.17
64.70
65.20
62.97
58.62
53.10
47.52
42.83
39.52
37.65
36.94
37.04
37.69
38.78
40.23
41.85
43.27
43.91
43.12
40.37
35.52
28.90
21.35
13.90
7.35
1.94
-2.77
-7.62
-13.40
-20.42
-28.37
-36.46
-43.88
-50.13
-55.10
-59.18
-63.00
-67.39
-73.20
-81.08
-91.07
-102.28
-112.69
-119.50
-119.89
-112.01
-95.62
-72.32
-45.05
-17.20
8.28
29.47
45.61
56.82
63.75
67.23
68.06
66.98
64.74
62.03
59.44
57.38
56.02
55.25
54.81
54.41
53.86
53.14
52.38
51.84
51.69
51.85
51.89
51.08
48.64
44.03
37.32
29.18
20.61
12.61
5.72
-0.09
-5.32
-10.57
-16.30
-22.65
-29.42
-36.26
-42.79
-48.70
-53.88
-58.48
-62.94
-67.99
-74.41
-82.81
-93.25
-104.89
-115.84
-123.47
-124.97
-118.32
-102.97
-80.20
-52.72
-23.95
3.12
26.44
45.17
59.29
69.23
75.43
78.38
78.63
76.89
74.05
70.93
68.16
66.13
64.94
64.46
64.43
64.55
64.55
64.29
63.74
62.95
61.92
60.53
58.54
55.73
51.94
47.16
41.48
35.04
28.06
20.83
13.68
6.91
0.65
-5.22
-11.00
-16.89
-22.91
-28.78
-34.12
-38.66
-42.48
-46.02
-49.93
-54.94
-61.60
-70.20
-80.57
-91.85
-102.42
-110.06
-112.32
-107.32
-94.37
-74.26
-49.23
-22.32
3.43
25.68
43.16
55.71
63.88
68.48
70.20
69.55
66.90
62.76
57.84
53.05
49.19
46.70
45.57
45.49
46.11
47.17
48.55
50.09
51.40
51.94
51.12
48.53
44.11
38.12
31.07
23.65
16.55
10.29
5.08
0.71
-3.40
-7.97
-13.53
-20.14
-27.29
-34.19
-40.09
-44.59
-47.88
-50.62
-53.73
-58.13
-64.49
-72.99
-83.07
-93.33
-101.59
-105.34
-102.39
-91.56
-73.25
-49.36
-22.90
2.90
25.35
42.89
55.10
62.42
65.68
65.75
63.40
59.40
54.60
49.87
45.93
43.20
41.63
40.81
40.27
39.73
39.17
38.84
38.98
39.62
40.43
40.79
39.90
37.16
