1629227875.00
64.000000
-0.00
-0.00
-0.00
-0.00
-0.00
-0.00
-0.00
-0.00
-0.00
-0.00
0.00
0.01
0.01
-0.00
-0.03
-0.05
-0.05
0.00
0.13
0.36
0.66
1.01
1.37
1.72
2.06
2.40
2.79
3.24
3.80
4.42
5.06
5.66
6.20
6.68
7.15
7.68
8.31
9.14
10.09
11.04
11.88
12.56
13.14
13.76
14.65
15.96
17.91
20.32
22.90
25.38
27.58
29.57
31.68
34.32
37.81
42.54
48.15
54.10
59.83
64.97
69.58
74.14
79.34
85.71
93.76
103.00
112.62
121.73
129.77
136.75
143.30
150.75
157.77
166.64
177.95
191.79
206.97
220.57
228.25
225.36
208.53
176.87
132.76
80.05
23.07
-34.94
-92.44
-149.16
-205.23
-260.37
-313.74
-363.87
-409.83
-450.91
-486.50
-515.74
-537.23
-549.22
-549.96
-538.37
-514.21
-478.67
-433.88
-382.45
-327.02
-269.84
-212.63
-156.66
-102.95
-52.37
-5.90
35.58
71.43
101.35
125.50
144.38
158.69
169.15
176.37
180.75
182.57
182.07
179.51
175.23
169.65
163.18
156.15
148.81
141.30
133.69
126.02
118.33
110.69
103.16
95.80
88.68
81.83
75.25
68.95
62.95
57.25
51.86
46.78
42.03
37.59
33.45
29.61
26.07
22.81
19.83
17.11
14.67
12.48
10.54
8.83
7.35
6.07
4.97
4.05
3.27
2.62
2.09
1.65
1.29
1.01
0.79
0.62
0.50
0.41
0.33
0.24
0.13
-0.01
-0.14
-0.24
-0.29
-0.29
-0.26
-0.21
-0.19
-0.20
-0.26
-0.33
-0.38
-0.37
-0.31
-0.22
-0.15
-0.15
-0.27
-0.47
-0.70
-0.87
-0.90
-0.77
-0.57
-0.41
-0.45
-0.77
-1.32
-1.94
-2.40
-2.52
-2.27
-1.79
-1.38
-1.36
-1.89
-2.92
-4.11
-5.02
-5.30
-4.86
-3.97
-3.12
-2.87
-3.52
-4.97
-6.73
-8.15
-8.72
-8.28
-7.09
-5.67
-4.61
-4.43
-5.49
-7.97
-11.61
-15.44
-17.67
-16.15
-9.24
3.20
19.29
35.70
48.80
56.09
57.18
53.16
46.00
37.52
28.75
20.07
11.65
3.90
-2.59
-7.20
-9.83
-10.76
-10.61
-10.04
-9.54
-9.28
-9.19
-9.05
-8.60
-7.75
-6.54
-5.28
-4.42
-4.31
-5.09
-6.52
-8.13
-9.35
-9.82
-9.51
-8.63
-7.57
-6.69
-6.20
-6.17
-6.52
-7.13
-7.80
-8.28
-8.31
-7.60
-5.87
-3.01
0.99
5.87
11.13
16.03
19.82
21.94
22.22
20.84
18.32
15.19
11.88
8.63
5.63
2.97
0.82
-0.71
-1.59
-1.93
-1.89
-1.63
-1.22
-0.44
0.72
2.14
3.56
4.66
5.23
5.23
4.63
3.50
1.87
-0.27
-2.83
-5.59
-8.27
-10.70
-12.84
-14.88
-17.08
-19.62
-22.59
-25.85
-29.16
-32.22
-34.60
-35.81
-35.29
-32.61
-27.60
-20.52
-11.94
-2.59
6.79
15.62
23.39
29.68
34.08
36.34
36.49
34.90
32.10
28.70
25.10
21.54
18.21
15.30
13.07
11.70
11.20
11.37
11.89
12.43
12.78
12.78
12.32
11.35
9.79
7.68
5.21
2.60
0.07
-2.31
-4.65
-7.11
-9.97
-13.40
-17.39
-21.79
-26.28
-30.51
-34.13
-36.86
-38.47
-38.64
-37.05
-33.41
-27.63
-19.97
-11.05
-1.68
7.30
15.26
21.82
26.78
30.07
31.62
31.45
29.76
26.86
23.21
19.28
15.50
12.19
9.59
7.87
7.10
7.17
7.84
8.77
9.58
9.95
9.65
8.57
6.73
4.25
1.32
-1.81
-4.91
-7.84
-10.57
-13.17
-15.78
-18.61
-21.85
-25.63
-29.92
-34.49
-38.87
-42.42
-44.47
-44.40
-41.87
-36.80
-29.47
-20.49
-10.69
-0.95
8.05
15.86
22.33
27.44
31.12
33.23
33.60
32.30
29.71
26.47
23.26
20.52
18.39
16.79
15.62
14.86
14.54
14.57
14.74
14.70
14.21
13.14
11.54
9.57
7.35
4.94
2.40
-0.15
-2.58
-4.76
-6.72
-8.62
-10.71
-13.27
-16.47
-20.39
-24.94
-29.94
-35.05
-39.75
-43.30
-44.99
-44.17
-40.58
-34.38
-26.21
-16.98
-7.62
1.13
8.86
15.35
20.53
24.29
26.55
27.35
26.95
25.80
24.30
22.76
21.27
19.81
18.35
16.98
15.91
15.31
15.25
15.59
16.12
16.52
16.53
15.96
14.76
13.02
10.92
8.65
6.33
3.97
1.47
-1.26
-4.18
-7.16
-10.06
-12.88
-15.77
-18.97
-22.66
-26.80
-31.12
-35.20
-38.54
-40.72
-41.39
-40.29
-37.26
-32.33
-25.70
-17.74
-8.99
-0.05
8.46
15.97
21.98
26.10
28.18
28.34
26.90
24.33
21.17
17.94
15.09
13.00
11.93
11.96
12.95
14.57
16.35
17.83
18.62
18.50
17.46
15.67
13.41
11.04
8.85
7.01
5.54
4.26
2.92
1.28
-0.89
-3.70
-7.13
-11.02
-15.13
-19.19
-23.00
-26.38
-29.27
-31.53
-32.95
-33.26
-32.33
-30.07
-26.59
-21.98
-16.32
-9.62
-1.98
6.20
14.26
21.31
26.52
29.43
29.90
28.23
24.94
20.72
16.26
12.26
9.28
7.70
7.55
8.56
10.21
11.90
13.04
13.28
12.53
11.03
9.15
7.34
5.87
4.71
3.61
2.25
0.42
-1.88
-4.59
-7.60
-10.90
-14.48
-18.31
-22.22
-25.94
-29.10
-31.38
-32.49
-32.22
-30.43
-27.23
-22.84
-17.61
-11.85
-5.81
0.38
6.55
12.36
17.32
20.90
22.76
22.91
21.61
19.28
16.31
13.04
9.77
6.86
4.65
3.37
3.04
3.45
4.23
4.99
5.32
4.86
3.38
0.92
-2.19
-5.40
-8.11
-10.04
-11.32
-12.43
-13.93
-16.20
-19.38
-23.38
-28.01
-33.00
-37.96
-42.24
-45.04
-45.58
-43.36
-38.37
-31.09
-22.31
-13.04
-4.16
3.59
9.83
14.46
17.67
19.78
21.04
21.60
21.52
20.86
19.76
18.41
16.95
15.50
14.10
12.78
11.70
11.01
10.83
11.16
11.82
12.50
12.86
12.57
11.34
9.08
5.93
2.27
-1.37
-4.53
-7.00
-8.92
-10.71
-12.82
-15.56
-19.05
-23.16
-27.59
-31.83
-35.31
-37.31
-37.24
-34.74
-29.80
-22.82
-14.45
-5.51
3.12
10.65
16.54
20.60
23.03
24.33
25.05
25.56
25.95
26.06
25.73
24.86
23.47
21.67
19.65
17.71
16.16
15.38
15.57
16.63
18.14
19.52
20.25
20.06
18.88
16.84
14.10
10.85
7.36
3.99
1.08
-1.17
-2.79
-4.10
-5.44
-7.10
-9.24
-11.93
-15.21
-19.06
-23.36
-27.83
-32.01
-35.34
-37.34
-37.65
-36.06
-32.56
-27.33
-20.72
-13.18
-5.24
2.57
9.84
16.17
21.26
24.87
26.89
27.36
26.51
24.63
22.10
19.30
16.63
14.48
13.19
12.94
13.68
15.11
16.82
18.36
19.40
19.71
19.19
17.84
15.86
13.54
11.26
9.34
7.85
6.66
5.44
3.87
1.80
-0.78
-3.76
-6.97
-10.31
-13.68
-16.99
-20.20
-23.26
-26.16
-28.83
-31.07
-32.47
-32.61
-31.16
-28.01
-23.31
-17.43
-10.81
-3.88
2.89
9.04
14.08
17.66
19.60
20.01
19.19
17.58
15.58
13.50
11.59
10.05
8.99
8.45
8.33
8.44
8.62
8.70
8.65
8.46
8.14
7.65
6.93
5.91
4.51
2.74
0.63
-1.75
-4.28
-6.83
-9.33
-11.75
-14.15
-16.62
-19.27
-22.20
-25.43
-28.88
-32.41
-35.75
-38.56
-40.40
-40.87
-39.62
-36.42
-31.28
-24.41
-16.26
-7.45
1.24
9.04
15.30
19.65
21.99
22.55
21.75
20.09
18.08
16.14
14.58
13.58
13.20
13.38
13.99
14.84
15.71
16.40
16.77
16.72
16.22
15.31
14.04
12.54
10.91
9.24
7.53
5.72
3.68
1.31
-1.44
-4.48
-7.64
-10.67
-13.40
-15.84
-18.20
-20.77
-23.79
-27.21
-30.72
-33.73
-35.59
-35.76
-33.95
-30.14
-24.57
-17.69
-10.08
-2.36
4.86
11.14
16.23
20.06
22.66
24.12
24.58
24.19
23.25
22.08
20.97
20.13
19.53
19.06
18.57
18.00
17.45
17.04
16.93
17.14
17.58
18.05
18.28
18.01
17.07
15.38
13.00
10.11
6.97
3.82
0.85
-1.80
-4.06
-5.92
-7.51
-9.00
-10.69
-12.84
-15.67
-19.21
-23.29
-27.54
-31.34
-33.93
-34.55
-32.71
-28.34
-21.88
-14.14
-6.08
1.46
7.95
13.12
16.97
19.50
20.82
21.04
20.37
19.11
17.56
16.02
14.67
13.55
12.63
11.88
11.31
10.92
10.81
11.01
11.43
11.90
12.15
11.94
11.16
9.83
8.09
6.14
4.08
1.99
-0.13
-2.27
-4.39
-6.44
-8.43
-10.48
-12.75
-15.44
-18.62
-22.14
-25.59
-28.43
-30.11
-30.25
-28.75
-25.70
-21.35
-15.92
-9.66
-2.94
3.72
9.63
14.12
16.75
17.55
16.91
15.45
13.72
12.05
10.51
9.03
7.62
6.36
5.46
5.06
5.16
5.58
6.05
6.33
6.27
5.83
4.99
3.77
2.08
-0.12
-2.76
-5.67
-8.59
-11.33
-13.83
-16.23
-18.77
-21.64
-24.87
-28.29
-31.58
-34.39
-36.38
-37.23
-36.61
-34.21
-29.84
-23.55
-15.78
-7.31
0.90
7.94
13.21
16.49
18.02
18.21
17.59
16.61
15.61
14.77
14.16
13.77
13.52
13.33
13.11
12.81
12.40
11.90
11.35
10.86
10.51
10.29
10.04
9.49
8.31
6.34
3.69
0.66
-2.32
-4.96
-7.24
-9.37
-11.68
-14.45
-17.86
-21.84
-26.17
-30.44
-34.17
-36.81
-37.87
-36.98
-34.00
-28.97
-22.21
-14.22
-5.72
2.51
9.72
15.41
19.41
21.87
23.12
23.56
23.44
22.92
22.09
21.05
19.94
18.92
18.10
17.50
17.05
16.64
16.26
15.95
15.75
15.72
15.81
15.82
15.51
14.66
13.11
10.92
8.26
5.41
2.61
0.02
-2.36
-4.54
-6.61
-8.66
-10.74
-12.93
-15.37
-18.15
-21.37
-24.99
-28.77
-32.20
-34.65
-35.49
-34.24
-30.77
-25.25
-18.12
-10.03
-1.72
6.04
12.63
17.60
20.83
22.47
22.89
22.54
21.82
21.02
20.30
19.72
19.30
19.00
18.76
18.56
18.43
18.42
18.59
18.92
19.27
19.44
19.28
18.74
17.83
16.62
15.09
13.21
10.91
8.30
5.57
3.00
0.74
-1.26
-3.19
-5.36
-7.94
-11.03
-14.54
-18.41
-22.48
-26.58
-30.43
-33.63
-35.78
-36.58
-35.92
-33.85
-30.49
-26.01
-20.59
-14.51
-8.12
-1.90
3.78
8.63
12.49
15.33
17.09
17.72
17.20
15.69
13.51
11.16
9.11
7.71
7.13
7.29
7.99
8.93
9.81
10.37
10.52
10.21
9.48
8.43
7.15
5.69
4.18
2.77
1.56
0.60
-0.24
-1.16
-2.44
-4.29
-6.76
-9.72
-12.89
-16.03
-19.00
-21.86
-24.79
-27.98
-31.43
-34.85
-37.74
-39.48
-39.61
-37.82
-34.10
-28.66
-21.80
-13.99
-5.78
2.22
9.35
15.11
19.22
21.66
22.64
22.55
21.81
20.86
20.03
19.53
19.38
19.52
19.78
20.01
20.13
20.15
20.13
20.15
20.26
20.44
20.61
20.63
20.31
19.52
18.19
16.38
14.23
11.91
9.54
7.18
4.88
2.64
0.54
-1.39
-3.15
-4.85
-6.66
-8.80
-11.37
-14.36
-17.68
-21.13
-24.53
-27.69
-30.39
-32.36
-33.25
-32.71
-30.45
-26.39
-20.68
-13.81
-6.45
0.68
7.00
12.20
16.32
19.53
21.99
23.70
24.52
24.26
22.95
20.93
18.73
16.93
15.90
15.70
16.17
17.05
18.12
19.24
20.24
20.92
21.05
20.41
18.96
16.92
14.67
12.52
10.63
8.96
7.24
5.31
3.11
0.79
-1.46
-3.57
-5.61
-7.78
-10.23
-12.97
-15.79
-18.42
-20.71
-22.71
-24.60
-26.54
-28.46
-29.99
-30.55
-29.59
-26.78
-22.16
-16.07
-9.09
-1.91
4.85
10.62
15.04
17.90
19.16
18.98
17.64
15.53
13.06
10.60
8.47
6.86
5.88
5.58
5.85
6.55
7.39
8.03
8.19
7.72
6.64
5.17
3.60
2.13
0.80
-0.53
-2.05
-3.90
-6.09
-8.49
-10.95
-13.37
-15.76
-18.20
-20.86
-23.88
-27.29
-30.96
-34.57
-37.61
-39.59
-40.09
-38.92
-36.05
-31.60
-25.74
-18.74
-10.98
-3.04
4.38
10.61
15.23
18.08
19.36
19.44
18.72
17.53
16.16
14.86
13.84
13.27
13.21
13.55
14.13
14.70
15.11
15.26
15.13
14.74
14.15
13.41
12.53
11.49
10.22
8.60
6.57
4.07
1.13
-2.15
-5.62
-9.12
-12.47
-15.55
-18.33
-20.94
-23.48
-26.03
-28.43
-30.35
-31.32
-30.96
-29.08
-25.65
-20.77
-14.59
-7.38
0.42
8.11
14.86
19.96
23.04
24.24
24.03
23.03
21.72
20.46
19.48
18.96
18.93
19.21
19.34
18.70
16.78
13.47
9.11
4.50
0.59
-1.80
-2.29
-1.02
1.34
3.88
5.74
6.39
5.81
4.33
2.36
0.20
-2.07
-4.51
-7.17
-9.97
-12.78
-15.49
-18.07
-20.52
-22.75
-24.44
-25.08
-24.20
-21.51
-17.08
-11.30
-4.79
1.81
7.91
13.04
16.88
19.26
20.16
19.77
18.42
16.57
14.65
12.98
11.69
10.77
10.16
9.81
9.77
10.04
10.55
11.09
11.39
11.18
10.37
9.01
7.29
5.40
3.44
1.46
-0.58
-2.70
-4.89
-7.16
-9.55
-12.11
-14.93
-18.04
-21.40
-24.91
-28.39
-31.65
-34.45
-36.46
-37.32
-36.64
-34.13
-29.76
-23.75
-16.61
-9.04
-1.74
4.73
10.05
14.08
16.86
18.52
19.21
19.13
18.51
17.60
16.63
15.74
15.00
14.46
14.10
13.97
14.09
14.39
14.71
14.83
14.63
14.12
13.47
12.89
12.42
11.87
10.92
9.34
7.13
4.58
2.06
-0.24
-2.37
-4.57
-7.07
-9.99
-13.27
-16.80
-20.53
-24.44
-28.40
-32.10
-35.04
-36.62
-36.40
-34.13
-29.85
-23.86
-16.65
-8.84
-1.12
5.87
11.69
16.11
19.16
20.96
21.74
21.77
21.35
20.77
20.26
19.87
19.50
18.99
18.29
17.52
16.92
16.74
17.06
17.74
18.56
19.25
19.62
19.49
18.73
17.23
15.01
12.19
9.07
5.94
2.99
0.31
-2.15
-4.49
-6.76
-8.99
-11.23
-13.62
-16.35
-19.57
-23.22
-27.01
-30.40
-32.73
-33.40
-32.06
-28.66
-23.52
-17.21
-10.38
-3.62
2.67
8.24
12.97
16.79
19.62
21.41
22.19
22.09
21.34
20.28
19.20
18.33
17.79
17.57
17.62
17.84
18.14
18.44
18.63
18.61
18.28
17.61
16.65
15.52
14.35
13.22
12.09
10.81
9.20
7.15
4.71
2.05
-0.57
-2.92
-4.94
-6.74
-8.55
-10.65
-13.19
-16.19
-19.45
-22.66
-25.48
-27.55
-28.59
-28.39
-26.77
-23.70
-19.29
-13.86
-7.85
-1.74
4.07
9.36
13.97
17.86
20.93
23.02
23.96
23.62
22.06
19.53
16.46
13.36
10.68
8.63
7.25
6.37
5.77
5.26
4.75
4.16
3.41
2.34
0.79
-1.29
-3.75
-6.23
-8.38
-9.99
-11.13
-12.11
-13.26
-14.81
-16.71
-18.81
-20.94
-23.04
-25.18
-27.47
-29.94
-32.49
-34.88
-36.81
-37.97
-38.01
-36.58
-33.45
-28.52
-22.02
-14.40
-6.36
1.36
8.13
13.47
17.14
19.11
19.60
18.99
17.79
16.51
15.52
15.02
14.99
15.28
15.68
16.05
16.33
16.60
16.96
17.49
18.12
18.70
18.99
18.83
18.18
17.16
15.93
14.57
13.03
11.20
9.01
6.52
3.94
1.51
-0.62
-2.49
-4.29
-6.23
-8.41
-10.75
-13.08
-15.22
-17.19
-19.17
-21.42
-24.12
-27.24
-30.38
-32.96
-34.33
-33.97
-31.68
-27.57
-22.02
-15.55
-8.75
-2.17
3.70
8.48
11.93
14.00
14.80
14.60
13.73
12.50
11.14
9.79
8.55
7.50
6.71
6.31
6.42
7.09
8.26
9.67
10.98
11.77
11.72
10.75
8.98
6.69
4.17
1.70
-0.56
-2.54
-4.25
-5.84
-7.46
-9.32
-11.52
-14.04
-16.72
-19.43
-22.12
-24.84
-27.65
-30.54
-33.33
-35.79
-37.67
-38.78
-38.98
-38.08
-35.89
-32.32
-27.45
-21.65
-15.42
-9.31
-3.79
0.78
4.16
6.24
7.02
6.69
5.62
4.23
2.88
1.76
0.90
0.32
0.03
0.13
0.71
1.73
3.01
4.23
5.08
5.34
5.08
4.53
4.09
4.12
4.77
5.92
7.19
8.08
8.17
7.28
5.50
3.14
0.60
-1.89
-4.29
-6.78
-9.70
-13.32
-17.70
-22.57
-27.34
-31.15
-33.23
-33.02
-30.43
-25.80
-19.76
-13.04
-6.26
0.13
5.81
10.49
13.94
15.92
16.44
15.75
14.35
12.88
11.79
11.36
11.60
12.37
13.52
14.93
16.51
18.15
19.70
20.96
21.82
22.21
22.14
21.65
20.77
19.49
17.82
15.78
13.44
10.89
8.18
5.38
2.54
-0.33
-3.20
-6.16
-9.38
-13.06
-17.29
-21.97
-26.69
-30.88
-33.96
-35.47
-35.16
-33.01
-29.09
-23.54
-16.66
-8.89
-0.84
6.84
13.65
19.35
23.90
27.32
29.61
30.70
30.69
29.90
28.82
27.91
27.42
27.30
27.31
27.30
27.25
27.31
27.59
28.07
28.55
28.83
28.78
28.39
27.74
26.77
25.44
23.62
21.26
18.45
15.32
12.05
8.81
5.73
2.85
0.10
-2.71
-5.78
-9.26
-13.18
-17.40
-21.66
-25.61
-28.92
-31.12
-31.83
-30.74
-27.78
-23.17
-17.41
-11.09
-4.73
1.30
6.76
11.48
15.29
18.14
20.03
21.11
21.55
21.48
20.96
20.04
18.81
17.46
16.27
15.45
15.09
15.16
15.54
16.08
16.65
17.14
17.39
17.24
16.52
15.18
13.28
10.96
8.36
5.59
2.70
-0.30
-3.35
-6.39
-9.34
-12.19
-15.08
-18.23
-21.78
-25.72
-29.72
-33.23
-35.59
-36.25
-34.90
-31.55
-26.42
-19.97
-12.68
-5.18
1.95
8.16
13.02
16.34
18.11
18.56
18.01
16.80
15.27
13.70
12.34
11.39
10.95
11.01
11.50
12.23
13.00
13.61
13.93
13.92
13.55
12.83
11.70
10.09
7.94
5.27
2.22
-0.98
-4.11
-7.03
-9.74
-12.41
-15.25
-18.41
-21.98
-25.87
-29.91
-33.89
-37.56
-40.63
-42.77
-43.58
-42.63
-39.57
-34.23
-26.81
-17.90
-8.38
0.81
8.84
15.17
19.60
22.21
23.30
23.28
22.60
21.71
20.99
20.67
20.79
21.25
21.88
22.55
23.11
23.50
23.64
23.49
23.04
22.34
21.49
20.57
19.59
18.46
17.11
15.49
13.65
11.67
9.61
7.41
4.97
2.16
-1.06
-4.61
-8.36
-12.19
-16.06
-20.00
-24.05
-28.22
-32.37
-36.24
-39.48
-41.65
-42.37
-41.34
-38.43
-33.68
-27.39
-20.03
-12.17
-4.41
2.70
8.74
13.43
16.70
18.66
19.55
19.71
19.45
19.05
18.67
18.44
18.40
18.57
18.94
19.45
20.09
20.84
21.69
22.58
23.40
23.91
23.89
23.16
21.67
19.54
16.94
14.08
11.09
8.06
5.04
2.05
-0.92
-3.87
-6.86
-9.96
-13.24
-16.74
-20.51
-24.55
-28.87
-33.45
-38.24
-43.11
-47.85
-52.25
-56.07
-59.02
-60.79
-61.01
-59.32
-55.51
-49.63
-42.04
-33.35
-24.24
-15.25
-6.74
1.18
8.55
15.41
21.79
27.66
32.88
37.30
40.78
43.21
44.66
45.34
45.54
45.48
45.23
44.61
43.44
41.62
39.29
36.80
34.47
32.39
30.40
28.18
25.47
22.22
18.54
14.59
10.47
6.20
1.83
-2.47
-6.37
-9.69
-12.47
-15.08
-18.07
-21.87
-26.57
-31.83
-36.92
-40.99
-43.33
-43.43
-41.14
-36.66
-30.40
-22.93
-14.85
-6.78
0.67
6.90
11.49
14.29
15.47
15.57
15.21
14.89
14.83
15.02
15.33
15.71
16.16
16.67
17.23
17.71
17.99
18.06
18.00
17.85
17.62
17.16
16.34
15.15
13.70
12.16
10.63
9.04
7.17
4.85
2.04
-1.04
-4.17
-7.13
-9.91
-12.63
-15.54
-18.80
-22.45
-26.35
-30.27
-33.87
-36.78
-38.66
-39.18
-38.13
-35.38
-30.99
-25.16
-18.28
-10.86
-3.47
3.36
9.21
13.84
17.15
19.19
20.08
20.04
19.35
18.31
17.20
16.24
15.58
15.24
15.25
15.58
16.24
17.12
18.10
18.98
19.55
19.62
19.11
18.04
16.45
14.47
12.22
9.86
7.55
5.39
3.39
1.39
-0.81
-3.41
-6.46
-9.92
-13.60
-17.35
-21.03
-24.52
-27.71
-30.47
-32.56
-33.71
-33.64
-32.20
-29.39
-25.36
-20.33
-14.66
-8.65
-2.65
2.97
7.91
11.91
14.80
16.47
16.95
16.32
14.86
12.93
10.99
9.50
8.77
8.89
9.72
10.96
12.27
13.36
13.95
13.81
12.86
11.16
9.00
6.81
4.96
3.57
2.49
1.31
-0.33
-2.62
-5.57
-9.04
-12.84
-16.83
-20.87
-24.81
-28.56
-32.02
-35.21
-38.14
-40.73
-42.73
-43.79
-43.49
-41.50
-37.65
-32.00
-24.81
-16.54
-7.83
0.60
8.02
13.89
17.97
20.32
21.24
21.12
20.32
19.17
17.96
16.94
16.36
16.38
17.03
18.21
19.71
21.20
22.42
23.10
23.17
22.61
21.58
20.27
18.88
17.50
16.06
14.35
12.17
9.41
6.16
2.71
-0.56
-3.36
-5.60
-7.46
-9.33
-11.65
-14.73
-18.64
-23.14
-27.75
-31.90
-35.03
-36.65
-36.41
-34.10
-29.69
-23.37
-15.62
-7.17
1.13
8.49
14.38
18.57
21.13
22.36
22.57
22.16
21.47
20.74
20.18
19.86
19.78
19.78
19.70
19.33
18.61
17.63
16.59
15.75
15.27
15.15
15.18
15.09
14.60
13.49
11.58
8.77
5.08
0.76
-3.77
-8.01
-11.52
-14.22
-16.36
-18.37
-20.65
-23.44
-26.79
-30.61
-34.63
-38.38
-41.17
-42.12
-40.52
-36.08
-29.12
-20.48
-11.22
-2.30
5.51
11.75
16.13
18.64
19.49
19.20
18.43
17.78
17.58
17.78
18.15
18.41
18.37
17.97
17.31
16.53
15.84
15.48
15.64
16.36
17.40
18.33
18.66
17.99
16.11
13.08
9.17
4.80
0.49
-3.30
-6.30
-8.51
-10.22
-11.90
-13.97
-16.63
-19.90
-23.66
-27.81
-32.28
-36.96
-41.49
-45.16
-47.12
-46.66
-43.48
-37.94
-30.75
-22.83
-14.88
-7.30
-0.23
6.25
12.00
16.79
20.40
22.71
23.79
23.89
23.34
22.45
21.54
20.85
20.53
20.65
21.20
22.03
22.98
23.83
24.47
24.80
24.80
24.43
23.66
22.45
20.76
18.67
16.33
13.97
11.72
9.56
7.32
4.77
1.82
-1.42
-4.70
-7.80
-10.69
-13.54
-16.60
-20.05
-23.88
-27.91
-31.86
-35.46
-38.38
-40.27
-40.71
-39.30
-35.83
-30.40
-23.35
-15.26
-6.77
1.47
8.89
15.03
19.55
22.25
23.11
22.36
20.48
18.10
15.95
14.64
14.50
15.47
17.15
19.00
20.52
21.39
21.57
21.13
20.27
19.16
17.98
16.87
15.91
15.04
14.11
12.91
11.26
9.05
6.32
3.18
-0.20
-3.64
-7.02
-10.25
-13.29
-16.23
-19.19
-22.32
-25.69
-29.28
-32.86
-35.99
-38.13
-38.69
-37.23
-33.52
-27.74
-20.42
-12.30
-4.23
3.10
9.18
13.73
16.69
18.14
18.33
17.64
16.50
15.30
14.27
13.47
12.81
12.20
11.62
11.16
10.94
11.04
11.37
11.76
12.00
11.91
11.41
10.45
9.04
7.20
4.93
2.29
-0.62
-3.62
-6.53
-9.21
-11.61
-13.86
-16.18
-18.85
-22.08
-25.92
-30.27
-34.90
-39.45
-43.56
-46.70
-48.25
-47.63
-44.44
-38.72
-30.99
-22.14
-13.13
-4.75
2.56
8.66
13.53
17.23
19.77
21.22
21.76
21.63
21.10
20.38
19.60
18.85
18.22
17.89
18.04
18.78
20.11
21.86
23.67
25.08
25.67
25.13
23.45
20.86
17.81
14.70
11.81
9.17
6.63
4.07
1.43
-1.20
-3.70
-6.00
-8.21
-10.62
-13.57
-17.32
-21.88
-27.01
-32.19
-36.78
-40.15
-41.85
-41.65
-39.49
-35.51
-29.93
-23.12
-15.51
-7.65
-0.08
6.78
12.64
17.37
20.90
23.20
24.26
24.16
23.14
21.56
19.87
18.47
17.60
17.36
17.74
18.58
19.70
20.84
21.72
22.11
21.86
20.93
19.38
17.35
15.00
12.55
10.16
7.96
5.98
4.17
2.33
0.29
-2.15
-5.06
-8.47
-12.32
-16.49
-20.85
-25.23
-29.40
-33.07
-35.95
-37.67
-37.91
-36.44
-33.15
-28.18
-21.91
-14.84
-7.52
-0.39
6.20
11.96
16.59
19.78
21.38
21.44
20.31
18.52
16.61
14.94
13.70
12.91
12.54
12.58
12.96
13.54
14.11
14.43
14.31
13.73
12.83
11.77
10.67
9.48
8.10
6.34
4.08
1.23
-2.15
-5.90
-9.81
-13.63
-17.21
-20.47
-23.40
-26.05
-28.55
-31.04
-33.66
-36.44
-39.23
-41.64
-43.06
-42.82
-40.43
-35.67
-28.77
-20.30
-11.05
-1.87
6.48
13.42
18.60
21.91
23.46
23.53
22.60
21.10
19.53
18.24
17.50
17.38
17.82
18.66
19.68
20.63
21.27
21.45
21.10
20.32
19.33
18.34
17.46
16.61
15.58
14.12
12.09
9.50
6.56
3.48
0.51
-2.21
-4.65
-6.81
-8.84
-10.97
-13.53
-16.79
-20.87
-25.57
-30.44
-34.78
-37.86
-39.03
-37.85
-34.13
-28.03
-20.07
-11.09
-2.13
5.84
12.14
16.48
19.00
20.10
20.22
19.74
18.96
18.07
17.23
16.54
16.04
15.67
15.32
14.91
14.40
13.85
13.36
13.04
12.93
12.97
12.98
12.74
12.01
10.67
8.68
6.12
3.08
-0.26
-3.72
-7.05
-10.05
-12.65
-14.98
-17.37
-20.22
-23.74
-27.79
-31.87
-35.29
-37.36
-37.57
-35.66
-31.57
-25.53
-18.04
-9.83
-1.83
5.12
10.47
14.09
16.21
17.21
17.46
17.24
16.70
15.95
15.08
14.16
13.16
12.07
10.90
9.79
8.95
8.58
8.64
8.95
9.16
8.91
8.02
6.52
4.58
2.37
-0.01
-2.57
-5.37
-8.43
-11.70
-14.99
-18.17
-21.27
-24.42
-27.81
-31.56
-35.49
-39.16
-41.92
-43.18
-42.49
-39.72
-34.96
-28.48
-20.67
-12.01
-3.14
5.19
12.22
17.39
20.44
21.54
21.16
19.95
18.56
17.48
16.90
16.81
17.04
17.32
17.47
17.39
17.09
16.64
16.11
15.52
14.88
14.19
13.41
12.54
11.49
10.14
8.30
5.85
2.72
-1.01
-5.12
-9.37
-13.46
-17.24
-20.70
-23.95
-27.14
-30.32
-33.37
-35.96
-37.59
-37.73
-35.95
-32.02
-25.95
-18.06
-8.95
0.53
9.45
16.91
22.28
25.35
26.33
25.80
24.43
22.83
21.43
20.48
20.02
19.97
20.23
20.64
21.06
21.38
21.50
21.38
21.03
20.52
19.94
19.39
18.85
18.16
17.04
15.18
12.44
8.89
4.86
0.79
-2.94
-6.15
-8.88
-11.33
-13.83
-16.69
-20.14
-24.18
-28.50
-32.50
-35.40
-36.47
-35.25
-31.67
-26.03
-18.86
-10.79
-2.47
5.46
12.37
17.72
21.25
22.94
23.10
22.20
20.65
18.83
17.00
15.39
14.19
13.60
13.65
14.26
15.23
16.29
17.22
17.88
18.22
18.27
18.07
17.61
16.82
15.57
13.75
11.39
8.66
5.83
3.10
0.49
-2.23
-5.41
-9.37
-14.21
-19.79
-25.70
-31.39
-36.25
-39.69
-41.26
-40.67
-37.87
-33.08
-26.63
-18.98
-10.64
-2.17
5.79
12.58
17.64
20.63
21.59
20.79
18.74
16.00
13.11
10.62
8.98
8.43
8.94
10.13
11.47
12.40
12.61
12.07
11.04
9.81
8.67
7.73
6.86
5.85
4.48
2.60
0.18
-2.68
-5.89
-9.35
-13.08
-17.09
-21.27
-25.35
-28.87
-31.36
-32.42
-31.91
-29.84
-26.42
-21.92
-16.67
-10.96
-5.12
0.53
5.77
10.35
14.09
16.77
18.25
18.48
17.57
15.79
13.55
11.25
9.18
7.63
6.78
6.74
7.44
8.57
9.61
10.09
9.65
8.25
6.13
3.64
1.04
-1.51
-3.97
-6.38
-8.80
-11.38
-14.34
-17.96
-22.36
-27.38
-32.42
-36.55
-38.74
-38.13
-34.37
-27.74
-19.14
-9.79
-0.93
6.52
12.12
15.92
18.20
19.34
19.64
19.38
18.79
18.09
17.42
16.82
16.18
15.40
14.43
13.41
12.53
12.00
11.82
11.93
12.09
12.06
11.57
10.43
8.46
5.66
2.14
-1.87
-6.11
-10.42
-14.77
-19.18
-23.63
-28.02
-32.11
-35.56
-37.92
-38.71
-37.52
-34.10
-28.53
-21.26
-13.01
-4.51
3.62
11.00
17.34
22.46
26.13
28.21
28.79
28.19
26.90
25.41
24.05
23.05
22.54
22.58
23.14
24.02
24.83
25.16
24.70
23.40
21.42
19.04
16.53
14.07
11.78
9.66
7.65
5.59
3.23
0.36
-3.13
-7.17
-11.59
-16.15
-20.72
-25.16
-29.38
-33.30
-36.88
-40.09
-42.90
-45.14
-46.41
-46.13
-43.78
-39.10
-32.30
-23.92
-14.67
-5.23
3.83
12.03
18.96
24.21
27.59
29.10
29.08
28.09
26.71
25.55
25.00
25.21
26.10
27.40
28.73
29.78
30.42
30.66
30.64
30.43
30.02
29.40
28.58
27.63
26.59
25.36
23.73
21.48
18.52
15.06
11.49
8.23
5.48
3.24
1.28
-0.67
-2.82
-5.26
-7.98
-10.96
-14.21
-17.75
-21.56
-25.57
-29.65
-33.55
-37.01
-39.93
-42.45
-44.81
-47.26
-49.74
-51.78
-52.56
-51.27
-47.43
-41.07
-32.73
-23.19
-13.31
-3.86
4.54
11.37
16.36
19.47
21.02
21.47
21.38
21.09
20.85
20.78
20.97
21.51
22.47
23.81
25.36
26.85
28.03
28.74
28.92
28.65
28.08
27.35
26.56
25.65
24.50
22.94
20.89
18.40
15.67
12.91
10.29
7.87
5.68
3.74
2.03
0.48
-1.08
-2.87
-5.09
-7.81
-10.93
-14.32
-17.87
-21.58
-25.42
-29.31
-33.10
-36.60
-39.63
-42.07
-43.73
-44.31
-43.39
-40.61
-35.84
-29.35
-21.69
-13.56
-5.57
1.79
8.15
13.22
16.79
18.79
19.39
19.02
18.19
17.32
16.71
16.44
16.50
16.81
17.32
17.93
18.54
19.06
19.43
19.62
19.61
19.36
18.84
18.04
17.01
15.77
14.31
12.55
10.43
7.95
5.23
2.44
-0.26
-2.85
-5.30
-7.60
-9.72
-11.64
-13.48
-15.50
-17.98
-21.13
-24.90
-29.05
-33.24
-37.18
-40.60
-43.22
-44.69
-44.58
-42.54
-38.46
-32.57
-25.38
-17.58
-9.82
-2.63
3.61
8.68
12.51
15.18
16.84
17.69
17.89
17.60
16.95
16.08
15.19
14.49
14.20
14.45
15.29
16.64
18.26
19.79
20.87
21.25
20.89
19.92
18.57
17.04
15.44
13.78
12.07
10.30
8.49
6.61
4.57
2.31
-0.24
-3.03
-5.96
-8.91
-11.83
-14.70
-17.54
-20.38
-23.28
-26.25
-29.31
-32.33
-35.02
-36.96
-37.66
-36.73
-34.03
-29.58
-23.61
-16.45
-8.60
-0.62
6.76
12.85
17.15
19.50
20.12
19.52
18.29
16.93
15.73
14.79
14.09
13.63
13.46
13.61
14.06
14.62
15.04
15.12
14.79
14.25
13.78
13.60
13.69
13.75
13.30
11.90
9.41
6.00
2.13
-1.69
-5.08
-7.83
-10.04
-11.95
-13.92
-16.32
-19.36
-23.08
-27.18
-31.18
-34.43
-36.31
-36.36
-34.33
-30.24
-24.36
-17.21
-9.54
-2.16
4.23
9.19
12.66
14.89
16.25
16.97
17.13
16.67
15.53
13.89
12.12
10.67
9.88
9.85
10.46
11.46
12.61
13.69
14.51
14.84
14.50
13.45
11.83
9.95
8.15
6.61
5.25
3.83
2.07
-0.13
-2.73
-5.54
-8.43
-11.37
-14.40
-17.59
-20.98
-24.45
-27.84
-30.93
-33.44
-34.97
-35.13
-33.52
-29.99
-24.67
-18.05
-10.83
-3.74
2.64
7.97
12.10
15.07
16.98
18.03
18.44
18.41
18.08
17.52
16.76
15.82
14.84
14.00
13.49
13.37
13.63
14.16
14.90
15.80
16.75
17.48
17.65
16.89
15.03
12.18
8.72
5.12
1.77
-1.07
-3.31
-5.05
-6.50
-7.96
-9.83
-12.46
-15.96
-20.15
-24.56
-28.53
-31.43
-32.72
-32.04
-29.29
-24.65
-18.56
-11.71
-4.80
1.58
7.05
11.53
15.04
17.59
19.27
20.14
20.28
19.80
18.79
17.26
15.29
13.03
10.76
8.85
7.61
7.15
7.48
8.43
9.72
10.93
11.64
11.42
10.03
7.55
4.35
0.92
-2.33
-5.21
-7.68
-9.83
-11.72
-13.50
-15.42
-17.83
-20.97
-24.79
-28.80
-32.15
-33.97
-33.73
-31.33
-27.13
-21.71
-15.53
-8.96
-2.31
4.12
9.88
14.45
17.47
18.77
18.48
17.06
15.08
13.07
11.41
10.22
9.47
9.05
8.88
8.90
9.08
9.36
9.61
9.73
9.61
9.19
8.47
7.42
6.01
4.24
2.15
-0.19
-2.67
-5.22
-7.82
-10.43
-13.03
-15.63
-18.30
-21.13
-24.20
-27.38
-30.31
-32.46
-33.19
-32.02
-28.77
-23.54
-16.72
-8.94
-0.93
6.54
12.75
17.20
19.69
20.35
19.55
17.80
15.66
13.70
12.39
12.02
12.55
13.66
14.80
15.52
15.63
15.29
14.79
14.34
13.91
13.39
12.66
11.70
10.61
9.43
8.09
6.39
4.16
1.38
-1.78
-5.05
-8.25
-11.26
-14.10
-16.86
-19.60
-22.32
-25.00
-27.41
-29.16
-29.74
-28.61
-25.48
-20.44
-13.90
-6.55
0.89
7.79
13.65
18.09
20.91
22.06
21.77
20.41
18.51
16.51
14.79
13.52
12.78
12.54
12.69
13.04
13.38
13.50
13.25
12.60
11.60
10.33
8.98
7.65
6.44
5.26
3.94
2.22
-0.06
-2.91
-6.10
-9.33
-12.40
-15.32
-18.29
-21.50
-24.96
-28.31
-30.91
-32.11
-31.43
-28.79
-24.44
-18.87
-12.61
-6.09
0.34
6.39
11.75
16.09
19.12
20.72
21.00
20.27
18.96
17.45
16.00
14.70
13.51
12.36
11.26
10.29
9.65
9.46
9.78
10.47
11.25
11.79
11.81
11.23
10.14
8.73
7.13
5.36
3.28
0.73
-2.37
-5.93
-9.73
-13.53
-17.23
-20.85
-24.44
-27.99
-31.30
-33.97
-35.57
-35.70
-34.20
-31.09
-26.55
-20.84
-14.27
-7.25
-0.19
6.42
12.12
16.59
19.67
21.37
21.86
21.41
20.33
18.93
17.51
16.28
15.40
14.92
14.82
15.03
15.47
16.06
16.69
17.22
17.52
17.41
16.81
15.73
14.22
12.40
10.34
8.13
5.81
3.45
1.08
-1.22
-3.47
-5.71
-8.06
-10.73
-13.93
-17.77
-22.18
-26.78
-31.00
-34.12
-35.51
-34.79
-31.90
-27.03
-20.63
-13.28
-5.71
1.34
7.24
11.67
14.67
16.57
17.78
18.57
19.04
19.11
18.73
17.98
16.95
15.76
14.49
13.26
12.22
11.62
11.60
12.04
12.57
12.75
12.27
11.11
9.49
7.66
5.74
3.73
1.59
-0.60
-2.66
-4.40
-5.82
-7.19
-8.93
-11.31
-14.44
-18.14
-22.07
-25.88
-29.29
-32.01
-33.72
-34.08
-32.71
-29.38
-24.16
-17.52
-10.29
-3.45
2.23
6.42
9.30
11.42
13.31
15.19
16.91
18.09
18.44
17.91
16.72
15.21
13.69
12.37
11.33
10.75
10.74
11.34
12.42
13.67
14.70
15.16
14.82
13.67
11.89
9.73
7.47
5.30
3.28
1.35
-0.65
-2.83
-5.25
-7.83
-10.58
-13.61
-17.06
-20.98
-25.21
-29.30
-32.62
-34.62
-34.99
-33.71
-30.93
-26.89
-21.88
-16.21
-10.25
-4.34
1.21
6.25
10.65
14.34
17.20
19.11
20.02
20.02
19.28
17.98
16.33
14.54
12.89
11.77
11.53
12.38
14.21
16.62
18.96
20.65
21.20
20.43
18.47
15.70
12.64
9.83
7.60
6.03
4.90
3.89
2.66
1.06
-1.05
-3.69
-6.87
-10.57
-14.63
-18.77
-22.67
-26.04
-28.71
-30.61
-31.66
-31.75
-30.73
-28.52
-25.10
-20.57
-15.11
-8.97
-2.50
3.82
9.43
13.85
16.79
18.26
18.47
17.76
16.44
14.76
12.97
11.37
10.26
9.87
10.23
11.16
12.29
13.31
14.00
14.33
14.33
14.07
13.53
12.67
11.49
10.04
8.45
6.85
5.31
3.74
1.91
-0.45
-3.46
-7.01
-10.76
-14.31
-17.38
-19.97
-22.30
-24.63
-27.09
-29.52
-31.59
-32.88
-33.04
-31.82
-29.14
-24.97
-19.46
-12.93
-5.95
0.85
6.83
11.58
14.92
16.86
17.56
17.25
16.22
14.82
13.44
12.39
11.85
11.84
12.22
12.85
13.56
14.23
14.76
15.09
15.20
15.11
14.91
14.70
14.50
14.22
13.71
12.75
11.17
8.90
6.08
2.99
-0.02
-2.63
-4.72
-6.40
-7.90
-9.56
-11.63
-14.24
-17.43
-21.14
-25.16
-29.07
-32.32
-34.27
-34.37
-32.36
-28.33
-22.70
-16.09
-9.18
-2.59
3.12
7.65
10.88
12.94
14.16
14.93
15.53
16.08
16.53
16.72
16.53
15.88
14.82
13.54
12.35
11.55
11.41
11.96
13.02
14.27
15.33
15.98
16.08
15.54
14.29
12.29
9.66
6.69
3.85
1.54
-0.09
-1.20
-2.22
-3.55
-5.43
-7.94
-11.04
-14.62
-18.48
-22.29
-25.59
-27.88
-28.76
-28.10
-26.01
-22.74
-18.52
-13.58
-8.15
-2.58
2.73
7.32
10.92
13.47
15.05
15.89
16.15
15.91
15.18
13.90
12.03
9.70
7.19
4.92
3.39
2.89
3.47
4.82
6.40
7.67
8.21
7.83
6.50
4.42
1.84
-0.96
-3.70
-6.16
-8.26
-10.03
-11.61
-13.21
-15.05
-17.41
-20.49
-24.32
-28.63
-32.85
-36.20
-37.92
-37.52
-34.90
-30.33
-24.29
-17.38
-10.28
-3.71
1.79
5.91
8.67
10.46
11.72
12.81
13.81
14.57
14.85
14.53
13.57
12.10
10.36
8.69
7.45
6.97
7.41
8.66
10.33
11.89
12.84
12.88
11.82
9.68
6.61
2.96
-0.76
-3.96
-6.22
-7.47
-8.07
-8.60
-9.67
-11.58
-14.49
-18.24
-22.54
-26.97
-30.89
-33.48
-33.99
-31.92
-27.30
-20.71
-13.08
-5.33
1.67
7.35
11.47
14.09
15.49
16.10
16.37
16.55
16.74
16.90
16.98
17.00
16.94
16.79
16.53
16.18
15.89
15.93
16.45
17.43
18.55
19.38
19.56
18.98
17.65
15.71
13.27
10.42
7.37
4.44
1.95
0.10
-1.24
-2.46
-4.05
-6.28
-9.22
-12.63
-16.20
-19.55
-22.37
-24.32
-25.06
-24.28
-21.82
-17.79
-12.54
-6.66
-0.91
4.08
7.90
10.50
12.11
13.16
13.98
14.69
15.22
15.38
15.09
14.39
13.40
12.28
11.17
10.18
9.45
9.15
9.43
10.26
11.43
12.58
13.32
13.39
12.63
11.03
8.69
5.80
2.65
-0.41
-3.07
-5.17
-6.79
-8.24
-9.89
-12.02
-14.82
-18.30
-22.23
-26.18
-29.52
-31.56
-31.70
-29.68
-25.63
-20.08
-13.74
-7.33
-1.44
3.50
7.28
9.87
11.40
12.17
12.49
12.62
12.65
12.53
12.18
11.60
10.79
9.82
8.77
7.75
6.89
6.42
6.50
7.13
8.12
9.05
9.48
9.08
7.69
5.43
2.54
-0.65
-3.78
-6.58
-8.87
-10.72
-12.33
-14.05
-16.25
-19.15
-22.80
-26.96
-31.14
-34.62
-36.68
-36.71
-34.48
-30.19
-24.35
-17.69
-10.82
-4.18
1.91
7.23
11.57
14.75
16.73
17.73
18.10
18.22
18.36
18.58
18.77
18.80
18.67
18.45
18.36
18.58
19.20
20.15
21.28
22.34
23.10
23.38
23.09
22.24
20.87
19.07
16.94
14.56
12.04
9.54
7.24
5.20
3.46
1.90
0.32
-1.48
-3.65
-6.22
-9.13
-12.28
-15.58
-18.98
-22.42
-25.85
-29.08
-31.87
-33.90
-34.84
-34.44
-32.55
-29.18
-24.47
-18.73
-12.38
-5.87
0.32
5.86
10.55
14.34
17.24
19.27
20.41
20.66
20.12
19.07
17.92
17.03
16.69
16.95
17.70
18.74
19.87
20.95
21.81
22.34
22.42
22.02
21.22
20.19
19.09
18.02
16.93
15.68
14.16
12.32
10.22
7.97
5.68
3.44
1.30
-0.69
-2.52
-4.19
-5.79
-7.45
-9.33
-11.59
-14.34
-17.61
-21.27
-25.09
-28.71
-31.69
-33.65
-34.33
-33.64
-31.67
-28.58
-24.55
-19.78
-14.45
-8.81
-3.16
2.14
6.77
10.40
12.85
14.06
14.14
13.34
12.02
10.56
9.25
8.29
7.75
7.66
8.04
8.89
10.18
11.78
13.45
14.91
15.86
16.10
15.61
14.47
12.85
10.98
9.03
7.11
5.30
3.60
1.98
0.41
-1.17
-2.79
-4.51
-6.34
-8.31
-10.44
-12.73
-15.19
-17.87
-20.80
-23.97
-27.32
-30.74
-34.05
-37.01
-39.30
-40.59
-40.49
-38.69
-35.06
-29.72
-23.08
-15.74
-8.35
-1.52
4.34
8.98
12.34
14.47
15.54
15.75
15.44
14.98
14.74
14.98
15.75
16.85
17.96
18.76
19.12
19.14
19.07
19.20
19.66
20.33
20.97
21.30
21.18
20.60
19.66
18.44
16.99
15.32
13.47
11.53
9.60
7.77
6.07
4.43
2.77
0.96
-1.12
-3.52
-6.21
-9.08
-11.96
-14.66
-17.14
-19.48
-21.87
-24.46
-27.24
-30.00
-32.24
-33.40
-33.02
-30.86
-26.96
-21.64
-15.39
-8.79
-2.45
3.13
7.57
10.69
12.46
13.08
12.88
12.26
11.62
11.25
11.26
11.60
12.15
12.74
13.31
13.82
14.25
14.60
14.76
14.66
14.33
13.83
13.30
12.84
12.45
12.05
11.50
10.61
9.25
7.34
4.90
2.06
-0.93
-3.85
-6.53
-8.93
-11.15
-13.39
-15.78
-18.45
-21.42
-24.63
-27.96
-31.17
-33.84
-35.49
-35.64
-34.02
-30.64
-25.79
-19.96
-13.73
-7.63
-2.04
2.82
6.84
9.99
12.30
13.76
14.37
14.21
13.46
12.43
11.45
10.79
10.53
10.62
10.92
11.41
12.12
13.10
14.24
15.24
15.68
15.20
13.75
11.61
9.29
7.23
5.57
4.19
2.77
1.10
-0.80
-2.74
-4.57
-6.24
-8.02
-10.21
-13.04
-16.45
-20.18
-23.85
-27.16
-29.96
-32.17
-33.72
-34.41
-33.96
-32.17
-28.98
-24.55
-19.19
-13.30
-7.23
-1.30
4.12
8.76
12.34
14.76
16.12
16.64
16.60
16.23
15.68
15.04
14.44
14.02
13.96
14.37
15.24
16.36
17.46
18.24
18.51
18.24
17.55
16.60
15.56
14.51
13.45
12.33
11.05
9.53
7.70
5.52
2.94
0.00
-3.19
-6.45
-9.53
-12.25
-14.59
-16.66
-18.69
-20.85
-23.11
-25.23
-26.83
-27.49
-26.86
-24.78
-21.20
-16.22
-10.12
-3.36
3.41
9.44
14.08
16.88
17.77
17.06
15.27
13.02
10.88
9.22
8.25
7.98
8.32
9.05
9.95
10.74
11.20
11.24
10.86
10.17
9.37
8.57
7.77
6.81
5.48
3.65
1.32
-1.36
-4.22
-7.12
-10.03
-13.02
-16.18
-19.58
-23.23
-27.03
-30.74
-33.98
-36.20
-36.92
-35.83
-32.94
-28.55
-23.16
-17.25
-11.15
-5.09
0.73
6.00
10.38
13.54
15.35
15.91
15.55
14.72
13.82
13.15
12.76
12.57
12.41
12.13
11.72
11.30
11.10
11.26
11.74
12.34
12.72
12.63
11.98
10.86
9.45
7.91
6.23
4.32
2.00
-0.84
-4.12
-7.68
-11.24
-14.63
-17.78
-20.81
-23.88
-27.06
-30.24
-33.06
-35.05
-35.75
-34.83
-32.19
-27.94
-22.29
-15.60
-8.30
-0.88
6.14
12.25
17.11
20.50
22.44
23.14
22.90
22.07
21.04
20.13
19.62
19.62
20.09
20.86
21.64
22.23
22.56
22.64
22.59
22.50
22.34
22.06
21.55
20.72
19.47
17.72
15.41
12.52
9.14
5.50
1.89
-1.45
-4.31
-6.70
-8.76
-10.76
-13.04
-15.87
-19.36
-23.36
-27.41
-30.84
-32.95
-33.17
-31.25
-27.26
-21.61
-14.85
-7.63
-0.61
5.67
10.79
14.50
16.75
17.68
17.58
16.88
16.01
15.28
14.78
14.46
14.16
13.78
13.37
13.08
13.06
13.32
13.67
13.82
13.49
12.59
11.20
9.54
7.80
6.09
4.36
2.47
0.32
-2.18
-5.01
-8.09
-11.31
-14.58
-17.87
-21.22
-24.67
-28.23
-31.77
-34.98
-37.39
-38.49
-37.86
-35.26
-30.73
-24.57
-17.30
-9.52
-1.82
5.23
11.18
15.67
18.55
19.93
20.11
19.57
18.77
18.03
17.46
17.01
16.58
16.10
15.62
15.25
15.07
15.06
15.15
15.24
15.29
15.26
15.09
14.65
13.70
12.07
9.62
6.46
2.79
-1.07
-4.83
-8.30
-11.41
-14.22
-16.89
-19.58
-22.46
-25.61
-29.01
-32.52
-35.82
-38.45
-39.83
-39.34
-36.46
-31.02
-23.38
-14.34
-5.05
3.38
10.26
15.32
18.74
20.88
22.10
22.71
22.97
23.12
23.32
23.64
23.94
24.05
23.83
23.29
22.61
22.01
21.65
21.58
21.79
22.12
22.39
22.35
21.74
20.42
18.39
15.86
13.11
10.38
7.74
5.21
2.78
0.44
-1.78
-3.98
-6.40
-9.30
-12.87
-17.08
-21.66
-26.17
-30.12
-33.03
-34.47
-34.09
-31.75
-27.53
-21.82
-15.22
-8.41
-1.94
3.82
8.72
12.68
15.71
17.84
19.07
19.44
19.05
18.07
16.71
15.26
13.92
12.83
11.98
11.38
11.05
11.10
11.65
12.63
13.79
14.68
14.86
14.05
12.29
9.86
7.08
4.16
1.14
-2.01
-5.33
-8.74
-12.06
-15.18
-18.10
-20.94
-23.96
-27.32
-31.05
-34.90
-38.41
-40.96
-41.95
-40.97
-37.89
-32.85
-26.21
-18.42
-10.07
-1.74
5.95
12.41
17.23
20.29
21.72
21.87
21.18
20.06
18.79
17.59
16.61
15.97
15.74
15.90
16.32
16.78
17.11
17.15
16.87
16.29
15.46
14.43
13.19
11.63
9.65
7.18
4.32
1.34
-1.44
-3.82
-5.84
-7.76
-9.97
-12.76
-16.28
-20.49
-25.22
-30.26
-35.22
-39.58
-42.69
-43.91
-42.83
-39.42
-34.01
-27.16
-19.48
-11.48
-3.61
3.74
10.27
15.79
20.18
23.42
25.55
26.60
26.66
25.93
24.72
23.44
22.40
21.77
21.59
21.75
22.08
22.42
22.60
22.45
21.85
20.79
19.38
17.80
16.22
14.74
13.36
12.02
10.60
8.97
6.97
4.46
1.41
-2.13
-5.92
-9.71
-13.28
-16.67
-20.00
-23.44
-27.03
-30.58
-33.68
-35.79
-36.47
-35.41
-32.50
-27.86
-21.81
-14.77
-7.17
0.52
7.84
14.32
19.47
22.89
24.39
24.05
22.32
19.81
17.21
15.00
13.44
12.54
12.17
12.15
12.35
12.68
13.09
13.49
13.76
13.72
13.18
11.99
10.12
7.67
4.84
1.91
-0.96
-3.69
-6.31
-8.91
-11.59
-14.39
-17.33
-20.46
-23.81
-27.43
-31.24
-34.99
-38.23
-40.37
-40.81
-39.15
-35.24
-29.31
-21.88
-13.69
-5.47
2.11
8.59
13.71
17.43
19.80
20.93
21.01
20.28
19.02
17.62
16.42
15.66
15.39
15.50
15.78
16.00
16.01
15.75
15.17
14.30
13.17
11.84
10.40
8.99
7.71
6.55
5.36
3.92
2.03
-0.44
-3.41
-6.65
-9.92
-13.05
-16.03
-18.95
-21.93
-25.02
-28.17
-31.21
-33.91
-35.96
-37.05
-36.83
-35.00
-31.38
-25.99
-19.06
-11.03
-2.52
5.74
13.12
19.09
23.34
25.84
26.78
26.56
25.62
24.31
22.93
21.68
20.70
20.07
19.81
19.89
20.19
20.56
20.82
20.82
20.51
19.87
18.91
17.64
16.05
14.09
11.74
9.02
6.05
3.02
0.13
-2.48
-4.78
-6.89
-9.00
-11.33
-14.04
-17.20
-20.79
-24.62
-28.37
-31.64
-33.88
-34.59
-33.34
-29.97
-24.63
-17.78
-10.13
-2.44
4.65
10.66
15.35
18.62
20.49
21.09
20.60
19.28
17.47
15.53
13.77
12.43
11.56
11.08
10.82
10.57
10.23
9.76
9.24
8.75
8.27
7.65
6.74
5.38
3.58
1.45
-0.85
-3.24
-5.75
-8.46
-11.44
-14.70
-18.13
-21.65
-25.25
-28.96
-32.80
-36.61
-40.05
-42.62
-43.84
-43.36
-41.09
-37.09
-31.51
-24.55
-16.51
-7.87
0.68
8.31
14.37
18.52
20.82
21.66
21.54
20.88
19.97
18.99
18.10
17.40
16.99
16.86
16.89
16.91
16.80
16.50
16.04
15.47
14.86
14.29
13.76
13.23
12.52
11.35
9.48
6.76
3.26
-0.77
-4.91
-8.78
-12.08
-14.72
-16.84
-18.80
-21.04
-23.90
-27.46
-31.41
-35.09
-37.64
-38.33
-36.75
-32.83
-26.89
-19.47
-11.15
-2.60
5.54
12.66
18.33
22.34
24.77
25.92
26.08
25.55
24.48
23.00
21.26
19.48
17.95
16.90
16.45
16.55
16.99
17.49
17.81
17.78
17.36
16.53
15.27
13.53
11.25
8.45
5.25
1.92
-1.21
-3.92
-6.15
-8.11
-10.17
-12.69
-15.90
-19.80
-24.11
-28.40
-32.14
-34.82
-35.97
-35.29
-32.63
-28.03
-21.78
-14.39
-6.55
1.01
7.65
12.95
16.77
19.16
20.31
20.41
19.69
18.34
16.62
14.80
13.18
11.97
11.29
11.08
11.16
11.29
11.24
10.86
10.09
9.00
7.72
6.38
5.00
3.55
1.90
-0.07
-2.40
-5.06
-8.03
-11.32
-14.92
-18.76
-22.67
-26.47
-30.04
-33.29
-36.25
-38.84
-40.76
-41.54
-40.58
-37.49
-32.16
-24.86
-16.12
-6.67
2.70
11.19
18.08
22.87
25.44
26.07
25.36
24.00
22.55
21.39
20.66
20.36
20.44
20.77
21.19
21.48
21.48
21.10
20.34
19.36
18.30
17.32
16.45
15.64
14.73
13.50
11.75
9.38
6.41
3.02
-0.53
-4.01
-7.25
-10.17
-12.82
-15.38
-18.08
-21.15
-24.65
-28.39
-31.87
-34.39
-35.24
-33.99
-30.54
-25.16
-18.29
-10.49
-2.35
5.56
12.65
18.38
22.43
24.72
25.47
25.05
23.89
22.35
20.71
19.15
17.80
16.70
15.88
15.29
14.90
14.68
14.63
14.66
14.61
14.26
13.41
11.94
9.94
7.56
5.02
2.45
-0.11
-2.71
-5.43
-8.30
-11.39
-14.71
-18.27
-22.10
-26.17
-30.38
-34.41
-37.82
-40.04
-40.52
-38.92
-35.15
-29.44
-22.25
-14.21
-5.92
1.99
9.01
14.68
18.74
21.07
21.80
21.24
19.83
18.07
16.42
15.26
14.76
14.87
15.32
15.74
15.78
15.30
14.40
13.31
12.27
11.41
10.66
9.85
8.80
7.41
5.66
3.60
1.26
-1.32
-4.12
-7.07
-10.11
-13.22
-16.45
-19.85
-23.50
-27.33
-31.13
-34.55
-37.17
-38.63
-38.60
-36.86
-33.30
-27.93
-20.96
-12.82
-4.19
4.15
11.42
17.11
20.99
23.21
24.08
24.01
23.33
22.32
21.19
20.15
19.38
18.98
18.96
19.17
19.43
19.58
19.52
19.26
18.82
18.25
17.54
16.70
15.71
14.53
13.11
11.35
9.16
6.49
3.39
0.03
-3.33
-6.53
-9.49
-12.32
-15.24
-18.48
-22.14
-26.06
-29.82
-32.82
-34.45
-34.28
-32.15
-28.21
-22.77
-16.26
-9.07
-1.64
5.58
12.06
17.30
20.93
22.84
23.18
22.36
20.83
19.00
17.15
15.42
13.89
12.62
11.67
11.12
10.97
11.14
11.43
11.57
11.30
10.40
8.83
6.65
4.07
1.33
-1.40
-4.00
-6.49
-8.90
-11.29
-13.68
-16.15
-18.79
-21.73
-25.11
-28.90
-32.87
-36.54
-39.30
-40.57
-39.92
-37.19
-32.45
-26.01
-18.32
-9.93
-1.47
6.45
13.26
18.54
22.08
23.92
24.34
23.74
22.56
21.12
19.58
17.98
16.33
14.76
13.49
12.82
12.92
13.76
15.03
16.32
17.20
17.39
16.70
15.08
12.60
9.50
6.10
2.82
-0.02
-2.28
-4.08
-5.65
-7.32
-9.32
-11.93
-15.33
-19.61
-24.66
-30.01
-34.94
-38.61
-40.36
-39.88
-37.25
-32.78
-26.85
-19.89
-12.31
-4.58
2.81
9.39
14.85
19.06
22.01
23.78
24.47
24.23
23.28
21.88
20.37
19.01
17.95
17.26
16.95
16.99
17.34
17.91
18.55
19.03
19.15
18.79
17.91
16.60
14.95
13.02
10.81
8.32
5.53
2.55
-0.49
-3.46
-6.30
-9.12
-12.12
-15.52
-19.37
-23.49
-27.49
-30.83
-32.99
-33.60
-32.53
-29.81
-25.61
-20.22
-13.96
-7.18
-0.33
6.13
11.75
16.16
19.18
20.78
21.11
20.41
18.95
17.00
14.82
12.68
10.83
9.50
8.83
8.81
9.27
9.95
10.57
10.91
10.82
10.29
9.32
7.93
6.18
4.08
1.69
-0.96
-3.79
-6.68
-9.55
-12.30
-15.01
-17.77
-20.78
-24.17
-27.96
-31.98
-35.88
-39.24
-41.61
-42.59
-41.85
-39.18
-34.54
-28.14
-20.44
-12.12
-3.87
3.69
10.17
15.40
19.37
22.15
23.80
24.41
24.09
23.02
21.43
19.64
17.99
16.77
16.21
16.38
17.18
18.35
19.54
20.41
20.70
20.27
19.06
17.11
14.60
11.75
8.87
6.23
3.98
2.11
0.49
-1.12
-2.89
-4.99
-7.49
-10.42
-13.77
-17.50
-21.51
-25.59
-29.43
-32.67
-34.85
-35.59
-34.60
-31.85
-27.49
-21.85
-15.35
-8.37
-1.27
5.58
11.78
16.94
20.71
22.91
23.67
23.26
22.07
20.48
18.80
17.22
15.93
15.09
14.85
15.23
16.08
17.08
17.82
17.85
16.95
15.17
12.90
10.63
8.80
7.57
6.72
5.79
4.37
2.28
-0.36
-3.24
-6.12
-8.97
-11.98
-15.34
-19.12
-23.13
-26.96
-30.18
-32.48
-33.70
-33.73
-32.50
-29.88
-25.80
-20.34
-13.85
-6.87
0.00
6.25
11.54
15.77
18.89
20.86
21.56
20.88
18.87
15.85
12.46
9.45
7.44
6.73
7.19
8.35
9.68
10.75
11.36
11.50
11.27
10.73
9.84
8.61
7.00
5.08
2.94
0.69
-1.64
-4.10
-6.91
-10.24
-14.15
-18.48
-22.87
-26.94
-30.42
-33.35
-35.87
-38.06
-39.75
-40.51
-39.85
-37.49
-33.40
-27.82
-21.13
-13.67
-5.74
2.27
9.89
16.56
21.75
25.16
26.61
26.21
24.27
21.36
18.22
15.65
14.28
14.38
15.76
17.90
20.15
21.93
22.75
22.35
20.74
18.25
15.41
12.85
11.00
9.91
9.28
8.62
7.54
5.92
3.71
0.96
-2.28
-5.97
-9.93
-13.83
-17.37
-20.40
-23.01
-25.42
-27.67
-29.45
-30.21
-29.35
-26.55
-21.94
-16.09
-9.68
-3.32
2.62
8.02
12.83
16.93
20.09
21.93
22.14
20.73
18.11
15.06
12.44
10.86
10.43
10.81
11.46
11.91
12.04
11.97
11.93
11.97
11.94
11.58
10.67
9.19
7.28
5.13
2.88
0.50
-2.04
-4.83
-7.89
-11.17
-14.62
-18.20
-21.89
-25.60
-29.17
-32.32
-34.69
-35.88
-35.56
-33.53
-29.79
-24.62
-18.45
-11.81
-5.22
0.94
6.43
11.13
14.93
17.71
19.38
19.91
19.43
18.23
16.76
15.39
14.42
13.91
13.75
13.79
13.92
14.11
14.34
14.53
14.46
13.91
12.76
11.08
9.12
7.19
5.46
3.89
2.31
0.51
-1.63
-4.11
-6.91
-10.00
-13.34
-16.91
-20.53
-24.01
-27.20
-29.94
-32.12
-33.62
-34.17
-33.53
-31.50
-28.00
-23.10
-17.04
-10.15
-2.88
4.29
10.88
16.47
20.77
23.71
25.23
25.37
24.27
22.21
19.68
17.25
15.48
14.66
14.74
15.44
16.42
17.39
18.18
18.65
18.64
18.03
16.79
15.10
13.23
11.46
9.90
8.46
7.00
5.42
3.72
1.96
0.16
-1.76
-3.97
-6.61
-9.74
-13.28
-17.07
-20.93
-24.63
-27.88
-30.31
-31.53
-31.19
-29.10
-25.27
-19.92
-13.48
-6.48
0.45
6.72
11.82
15.49
17.70
18.64
18.58
17.80
16.57
15.15
13.79
12.68
11.91
11.41
11.05
10.70
10.31
9.87
9.43
8.93
8.28
7.40
6.28
4.99
3.65
2.31
0.90
-0.68
-2.55
-4.77
-7.36
-10.28
-13.52
-17.01
-20.64
-24.28
-27.77
-31.00
-33.85
-36.12
-37.53
-37.60
-35.92
-32.27
-26.85
-20.16
-12.95
-5.87
0.65
6.42
11.35
15.31
18.10
19.55
19.66
18.71
17.23
15.82
14.88
14.52
14.58
14.79
14.94
14.99
15.01
15.06
15.17
15.25
15.19
14.91
14.37
13.56
12.48
11.08
9.35
7.28
4.92
2.35
-0.36
-3.13
-5.92
-8.71
-11.46
-14.22
-17.01
-19.93
-22.92
-25.81
-28.27
-29.83
-30.06
-28.64
-25.42
-20.52
-14.30
-7.30
-0.15
6.51
12.19
16.62
19.73
21.59
22.35
22.15
21.13
19.56
17.76
16.08
14.84
14.14
13.90
13.91
14.00
14.03
14.02
13.99
13.85
13.49
12.74
11.52
9.86
7.86
5.68
3.37
0.92
-1.69
-4.45
-7.25
-9.96
-12.50
-14.90
-17.31
-19.86
-22.57
-25.19
-27.26
-28.17
-27.39
-24.67
-20.15
-14.30
-7.76
-1.20
4.82
9.92
13.80
16.29
17.33
17.00
15.56
13.45
11.17
9.15
7.62
6.61
5.98
5.58
5.28
5.05
4.86
4.66
4.35
3.79
2.87
1.54
-0.10
-1.95
-3.88
-5.85
-7.89
-10.09
-12.55
-15.37
-18.59
-22.21
-26.15
-30.19
-33.92
-36.79
-38.21
-37.73
-35.13
-30.54
-24.42
-17.41
-10.20
-3.38
2.67
7.77
11.85
14.90
16.87
17.77
17.70
16.86
15.55
14.06
12.62
11.30
10.14
9.19
8.59
8.49
8.97
9.90
10.95
11.71
11.77
10.93
9.19
6.76
3.96
1.09
-1.61
-4.04
-6.27
-8.49
-10.94
-13.81
-17.13
-20.74
-24.34
-27.47
-29.61
-30.25
-29.02
-25.76
-20.60
-14.02
-6.68
0.72
7.54
13.34
17.82
20.84
22.40
22.61
21.82
20.42
18.87
17.56
16.68
16.28
16.23
16.38
16.58
16.71
16.74
16.63
16.40
16.01
15.44
14.59
13.39
11.75
9.67
7.25
4.61
1.88
-0.91
-3.79
-6.88
-10.24
-13.87
-17.60
-21.09
-23.95
-25.78
-26.29
-25.30
-22.79
-18.82
-13.60
-7.41
-0.70
5.99
12.01
16.78
19.90
21.27
21.05
19.62
17.41
14.84
12.27
10.07
8.54
7.85
7.93
8.51
9.14
9.44
9.18
8.40
7.27
5.97
4.56
3.01
1.23
-0.81
-3.06
-5.49
-8.10
-10.96
-14.18
-17.86
-22.01
-26.48
-30.92
-34.81
-37.52
-38.49
-37.39
-34.16
-29.03
-22.47
-15.04
-7.35
0.01
6.54
11.85
15.77
18.30
19.65
20.11
19.94
19.26
18.17
16.77
15.21
13.74
12.62
12.00
11.89
12.10
12.41
12.65
12.73
12.64
12.29
11.48
9.95
7.56
4.42
0.95
-2.31
-4.94
-6.91
-8.51
-10.26
-12.61
-15.77
-19.70
-24.17
-28.77
-32.97
-36.12
-37.52
-36.59
-33.08
-27.20
-19.52
-10.88
-2.15
5.91
12.76
18.09
21.78
23.96
24.90
24.97
24.51
23.81
23.08
22.44
22.00
21.84
21.97
22.32
22.78
23.21
23.52
23.62
23.50
23.07
22.28
21.03
19.36
17.31
15.00
12.55
10.05
7.60
5.29
3.16
1.21
-0.71
-2.79
-5.28
-8.29
-11.82
-15.67
-19.64
-23.52
-27.19
-30.49
-33.20
-34.94
-35.26
-33.76
-30.24
-24.83
-17.99
-10.46
-3.02
3.67
9.22
13.55
16.80
19.17
20.78
21.65
21.69
20.96
19.69
18.22
16.96
16.12
15.68
15.51
15.46
15.51
15.70
16.11
16.64
17.04
16.94
16.01
14.15
11.51
8.40
5.23
2.32
-0.21
-2.41
-4.46
-6.53
-8.74
-11.08
-13.49
-15.93
-18.40
-21.04
-24.01
-27.47
-31.46
-35.70
-39.73
-42.90
-44.57
-44.30
-41.91
-37.48
-31.30
-23.81
-15.49
-6.92
1.30
8.54
14.29
18.24
20.39
21.00
20.53
19.52
18.43
17.60
17.21
17.25
17.64
18.25
19.00
19.83
20.70
21.53
22.11
22.21
21.67
20.49
18.90
17.25
15.79
14.61
13.57
12.40
10.87
8.87
6.44
3.70
0.79
-2.17
-5.09
-7.90
-10.54
-13.00
-15.34
-17.71
-20.28
-23.22
-26.59
-30.28
-33.95
-37.10
-39.09
-39.34
-37.44
-33.32
-27.24
-19.77
-11.64
-3.65
3.56
9.52
14.05
17.25
19.38
20.81
21.78
22.43
22.76
22.66
22.09
21.08
19.79
18.52
17.60
17.31
17.77
18.90
20.41
21.88
22.86
22.99
22.10
20.26
17.73
14.87
12.03
9.47
7.33
5.61
4.20
2.89
1.47
-0.28
-2.46
-5.08
-8.04
-11.21
-14.48
-17.79
-21.12
-24.49
-27.86
-31.07
-33.92
-36.08
-37.14
-36.74
-34.56
-30.51
-24.80
-17.91
-10.50
-3.24
3.33
8.86
13.19
16.24
18.02
18.65
18.37
17.52
16.41
15.25
14.12
13.04
12.04
11.26
10.92
11.16
11.97
13.10
14.14
14.70
14.55
13.67
12.30
10.71
9.14
7.64
6.14
4.47
2.47
0.09
-2.64
-5.56
-8.54
-11.46
-14.29
-17.04
-19.72
-22.36
-25.00
-27.69
-30.53
-33.57
-36.72
-39.66
-41.86
-42.67
-41.53
-38.19
-32.74
-25.69
-17.70
-9.50
-1.70
5.25
11.05
15.50
18.50
20.08
20.42
19.88
18.84
17.73
16.82
16.26
16.08
16.27
16.76
17.53
18.53
19.64
20.69
21.50
21.88
21.72
21.01
19.80
18.19
16.27
14.10
11.72
9.17
6.59
4.19
2.17
0.62
-0.68
-2.12
-4.15
-7.02
-10.62
-14.62
-18.64
-22.45
-26.04
-29.45
-32.55
-34.95
-36.18
-35.80
-33.77
-30.31
-25.87
-20.83
-15.39
-9.62
-3.58
2.61
8.67
14.19
18.71
21.81
23.24
22.99
21.40
19.00
16.45
14.29
12.88
12.37
12.71
13.75
15.23
16.77
17.99
18.58
18.42
17.61
16.37
14.91
13.29
11.50
9.52
7.40
5.23
3.11
1.05
-1.08
-3.40
-5.97
-8.77
-11.70
-14.79
-18.13
-21.85
-25.88
-29.89
-33.31
-35.55
-36.19
-35.17
-32.72
-29.11
-24.54
-19.12
-12.89
-6.06
0.88
7.28
12.50
16.12
18.09
18.66
18.24
17.22
15.91
14.51
13.15
12.00
11.18
10.82
10.95
11.46
12.16
12.82
13.21
13.25
12.91
12.23
11.21
9.89
8.26
6.33
4.19
1.91
-0.41
-2.71
-4.99
-7.26
-9.60
-12.07
-14.75
-17.73
-21.10
-24.83
-28.77
-32.61
-35.89
-38.12
-38.86
-37.84
-35.05
-30.66
-25.00
-18.46
-11.41
-4.28
2.53
8.62
13.62
17.31
19.65
20.83
21.12
20.86
20.33
19.69
19.04
18.38
17.69
17.01
16.46
16.18
16.31
16.86
17.68
18.48
19.02
19.14
18.84
18.22
17.34
16.19
14.64
12.62
10.14
7.37
4.52
1.77
-0.79
-3.16
-5.36
-7.44
-9.46
-11.55
-13.93
-16.79
-20.22
-24.13
-28.16
-31.71
-34.05
-34.53
-32.72
-28.66
-22.77
-15.83
-8.69
-2.03
3.75
8.48
12.17
14.83
16.52
17.33
17.40
16.96
16.23
15.33
14.36
13.35
12.46
11.82
11.59
11.79
12.33
12.95
13.44
13.62
13.41
12.77
11.71
10.23
8.39
6.27
4.03
1.76
-0.47
-2.64
-4.79
-6.97
-9.20
-11.57
-14.15
-17.08
-20.42
-24.13
-27.95
-31.47
-34.16
-35.53
-35.26
-33.18
-29.40
-24.22
-18.11
-11.63
-5.28
0.54
5.60
9.82
13.17
15.64
17.21
17.84
17.65
16.85
15.70
14.52
13.51
12.80
12.41
12.29
12.35
12.46
12.48
12.29
11.88
11.31
10.67
9.98
9.14
7.98
6.32
4.08
1.41
-1.42
-4.10
-6.46
-8.45
-10.25
-12.06
-14.14
-16.65
-19.72
-23.37
-27.38
-31.26
-34.32
-35.90
-35.59
-33.38
-29.63
-24.88
-19.52
-13.79
-7.75
-1.51
4.65
10.30
15.01
18.52
20.80
22.01
22.35
21.98
21.02
19.59
17.90
16.25
14.93
14.30
14.55
15.65
17.34
19.12
20.40
20.72
19.97
18.33
16.24
14.10
12.12
10.31
8.53
6.67
4.70
2.64
0.52
-1.65
-3.95
-6.46
-9.24
-12.36
-15.86
-19.67
-23.58
-27.23
-30.14
-31.81
-31.85
-30.07
-26.56
-21.55
-15.44
-8.73
-1.93
4.45
9.93
14.17
17.02
18.50
18.85
18.39
17.46
16.35
15.24
14.17
13.15
12.20
11.37
10.76
10.42
10.33
10.41
10.51
10.50
10.27
9.76
8.91
7.69
6.08
4.10
1.82
-0.65
-3.16
-5.61
-8.03
-10.55
-13.36
-16.65
-20.46
-24.65
-28.84
-32.55
-35.28
-36.63
-36.35
-34.35
-30.72
-25.67
-19.56
-12.80
-5.88
0.73
6.59
11.39
14.91
17.12
18.13
18.19
17.60
16.67
15.55
14.34
13.05
11.71
10.48
9.56
9.17
9.37
10.05
10.97
11.79
12.23
12.12
11.45
10.25
8.62
6.68
4.60
2.49
0.42
-1.60
-3.72
-6.12
-8.95
-12.33
-16.29
-20.73
-25.36
-29.72
-33.20
-35.17
-35.20
-33.14
-29.24
-23.99
-17.99
-11.75
-5.65
0.06
5.24
9.89
14.03
17.67
20.74
23.05
24.29
24.27
23.01
20.88
18.40
16.13
14.44
13.49
13.31
13.82
14.90
16.32
17.69
18.59
18.66
17.77
16.09
14.01
11.90
10.07
8.57
7.24
5.81
4.02
1.73
-1.05
-4.15
-7.35
-10.46
-13.43
-16.41
-19.52
-22.84
-26.14
-29.00
-30.84
-31.17
-29.71
-26.49
-21.77
-15.96
-9.54
-2.97
3.28
8.79
13.18
16.28
18.06
18.67
18.33
17.28
15.75
13.92
12.03
10.33
9.04
8.34
8.26
8.70
9.43
10.16
10.63
10.65
10.13
9.11
7.68
5.95
4.03
1.99
-0.11
-2.26
-4.44
-6.64
-8.95
-11.47
-14.30
-17.52
-21.09
-24.89
-28.71
-32.27
-35.25
-37.29
-37.98
-36.93
-33.91
-28.95
-22.43
-14.97
-7.30
-0.14
6.02
10.93
14.52
16.83
18.05
18.43
18.33
18.03
17.72
17.35
16.78
15.93
14.92
14.14
13.99
14.64
15.86
17.06
17.60
17.15
15.75
13.78
11.63
9.52
7.46
5.37
3.28
1.32
-0.37
-1.77
-3.14
-4.87
-7.35
-10.80
-15.15
-20.04
-24.93
-29.25
-32.49
-34.34
-34.63
-33.36
-30.60
-26.43
-21.01
-14.59
-7.58
-0.50
6.18
12.10
17.03
20.85
23.48
24.77
24.69
23.35
21.14
18.65
16.52
15.16
14.77
15.20
16.15
17.26
18.22
18.78
18.78
18.14
16.89
15.15
13.14
11.06
9.08
7.26
5.54
3.76
1.78
-0.47
-2.96
-5.61
-8.35
-11.19
-14.19
-17.44
-20.87
-24.27
-27.28
-29.46
-30.41
-29.88
-27.73
-24.02
-18.95
-12.86
-6.23
0.40
6.46
11.50
15.26
17.67
18.83
18.93
18.22
16.91
15.25
13.50
11.95
10.88
10.44
10.62
11.20
11.86
12.30
12.32
11.92
11.22
10.29
9.20
7.87
6.24
4.26
1.96
-0.53
-3.06
-5.55
-7.97
-10.39
-12.93
-15.68
-18.73
-22.09
-25.80
-29.82
-33.96
-37.85
-40.86
-42.28
-41.50
-38.22
-32.65
-25.41
-17.33
-9.20
-1.64
4.95
10.29
14.22
16.74
17.97
18.25
18.01
17.61
17.28
17.06
16.90
16.73
16.43
15.96
15.34
14.67
14.15
13.99
14.29
14.95
15.69
16.15
16.07
15.36
14.02
12.05
9.48
6.34
2.86
-0.59
-3.62
-6.01
-7.86
-9.56
-11.56
-14.13
-17.28
-20.79
-24.39
-27.89
-31.13
-33.91
-35.81
-36.29
-34.83
-31.11
-25.28
-17.83
-9.57
-1.35
6.15
12.48
17.43
21.01
23.29
24.42
24.51
23.71
22.20
20.22
18.11
16.25
15.02
14.62
15.10
16.25
17.72
19.13
20.14
20.57
20.32
19.41
17.90
15.90
13.61
11.27
9.08
7.11
5.29
3.43
1.28
-1.31
-4.30
-7.51
-10.76
-13.96
-17.22
-20.74
-24.62
-28.68
-32.38
-34.97
-35.70
-34.06
-30.02
-24.01
-16.77
-9.14
-1.88
4.52
9.84
14.05
17.23
19.42
20.64
20.85
20.11
18.58
16.59
14.56
12.85
11.68
11.01
10.72
10.58
10.45
10.25
9.96
9.57
9.01
8.17
6.92
5.24
3.17
0.86
-1.51
-3.81
-6.00
-8.16
-10.42
-12.91
-15.73
-19.01
-22.85
-27.26
-32.09
-36.97
-41.26
-44.24
-45.23
-43.85
-40.05
-34.15
-26.70
-18.45
-10.12
-2.34
4.46
10.07
14.50
17.84
20.22
21.73
22.41
22.38
21.82
20.87
19.64
18.21
16.64
15.07
13.76
13.00
12.95
13.55
14.50
15.40
15.90
15.77
14.92
13.35
11.16
8.52
5.67
2.82
0.16
-2.29
-4.60
-6.95
-9.47
-12.29
-15.49
-19.08
-23.03
-27.18
-31.22
-34.65
-36.89
-37.40
-35.85
-32.22
-26.71
-19.83
-12.11
-4.14
3.56
10.54
16.47
21.07
24.20
25.86
26.18
25.45
24.02
22.28
20.53
18.98
17.75
16.94
16.59
16.70
17.22
17.99
18.78
19.34
19.48
19.06
18.06
16.51
14.43
11.85
8.87
5.63
2.37
-0.65
-3.32
-5.67
-7.94
-10.45
-13.47
-17.03
-20.97
-24.90
-28.34
-30.81
-31.92
-31.41
-29.16
-25.20
-19.71
-13.08
-5.85
1.34
7.87
13.29
17.39
20.12
21.60
21.95
21.26
19.65
17.36
14.77
12.36
10.59
9.70
9.59
9.97
10.42
10.61
10.44
9.93
9.18
8.15
6.67
4.49
1.51
-2.06
-5.75
-8.98
-11.42
-13.12
-14.59
-16.44
-19.20
-23.09
-28.02
-33.61
-39.29
-44.33
-47.83
-48.92
-47.00
-41.97
-34.31
-25.01
-15.16
-5.77
2.43
8.96
13.60
16.35
17.49
17.53
17.09
16.71
16.65
16.94
17.39
17.81
17.96
17.74
17.08
16.11
15.06
14.26
13.93
14.08
14.39
14.42
13.74
12.15
9.64
6.40
2.71
-1.15
-4.89
-8.24
-11.06
-13.45
-15.73
-18.33
-21.61
-25.59
-29.97
-34.16
-37.46
-39.21
-38.94
-36.38
-31.55
-24.73
-16.45
-7.47
1.41
9.51
16.29
21.45
24.91
26.74
27.18
26.57
25.36
23.98
22.76
21.94
21.56
21.55
21.75
21.99
22.12
22.05
21.75
21.24
20.58
19.78
18.82
17.65
16.12
14.16
11.72
8.84
5.65
2.35
-0.91
-3.98
-6.78
-9.34
-11.82
-14.45
-17.48
-21.15
-25.53
-30.50
-35.55
-39.86
-42.42
-42.28
-38.91
-32.46
-23.68
-13.77
-3.96
4.81
12.06
17.69
21.79
24.48
25.81
25.92
25.07
23.66
22.21
21.10
20.48
20.23
19.99
19.40
18.35
17.00
15.71
14.86
14.53
14.51
14.35
13.66
12.24
10.16
7.54
4.51
1.10
-2.67
-6.64
-10.48
-13.81
-16.37
-18.19
-19.58
-21.01
-22.92
-25.74
-29.71
-34.93
-41.15
-47.79
-53.83
-58.11
-59.63
-57.81
-52.72
-44.87
-35.12
-24.43
-13.67
-3.58
5.38
12.95
19.11
23.95
27.60
30.17
31.75
32.45
32.44
31.88
30.93
29.78
28.67
27.86
27.66
28.22
29.48
31.10
32.58
33.44
33.41
32.45
30.70
28.41
25.77
22.98
20.18
17.46
14.92
12.52
10.14
7.58
4.69
1.38
-2.29
-6.13
-9.90
-13.40
-16.56
-19.44
-22.20
-25.07
-28.25
-31.86
-35.90
-40.18
-44.26
-47.53
-49.27
-48.80
-45.69
-39.87
-31.69
-21.82
-11.15
-0.60
9.05
17.26
23.70
28.20
30.79
31.54
30.70
28.70
26.10
23.52
21.50
20.36
20.09
20.39
20.87
21.18
21.19
20.98
20.75
20.58
20.38
19.91
18.91
17.20
14.84
12.07
9.15
6.25
3.41
0.55
-2.39
-5.35
-8.26
-11.02
-13.66
-16.34
-19.29
-22.79
-27.06
-32.16
-37.92
-43.91
-49.44
-53.66
-55.76
-55.11
-51.43
-44.88
-36.02
-25.63
-14.62
-3.85
6.03
14.52
21.37
26.45
29.76
31.40
31.62
30.80
29.42
27.89
26.48
25.31
24.43
23.93
23.96
24.60
25.72
26.96
27.82
27.91
27.06
25.41
23.23
20.79
18.22
15.60
12.95
10.36
7.89
5.58
3.34
1.03
-1.50
-4.33
-7.46
-10.79
-14.22
-17.66
-21.06
-24.41
-27.81
-31.40
-35.34
-39.70
-44.38
-48.99
-52.89
-55.32
-55.49
-52.81
-47.03
-38.41
-27.63
-15.70
-3.77
7.18
16.42
23.58
28.60
31.68
33.10
33.24
32.48
31.25
29.96
28.94
28.40
28.41
28.81
29.38
29.84
30.02
29.88
29.50
29.03
28.59
28.15
27.58
26.66
25.22
23.15
20.50
17.40
14.03
10.58
7.24
4.19
1.59
-0.53
-2.34
-4.17
-6.41
-9.31
-12.87
-16.89
-21.05
-25.16
-29.21
-33.27
-37.34
-41.17
-44.23
-45.80
-45.26
-42.22
-36.67
-28.93
-19.61
-9.42
0.83
10.43
18.76
25.29
29.69
31.85
31.86
30.10
27.12
23.53
19.90
16.72
14.28
12.82
12.46
13.15
14.67
16.59
18.32
19.35
19.32
18.12
15.90
12.96
9.59
6.11
2.73
-0.42
-3.32
-6.03
-8.69
-11.45
-14.47
-17.82
-21.50
-25.44
-29.59
-33.92
-38.41
-43.10
-47.88
-52.43
-56.19
-58.44
-58.49
-55.89
-50.56
-42.77
-33.03
-22.02
-10.44
0.93
11.32
20.03
26.50
30.54
32.28
32.19
30.91
29.09
27.27
25.82
24.90
24.52
24.54
24.79
25.10
25.34
25.45
25.43
25.22
24.73
23.86
22.54
20.78
18.68
16.38
13.96
11.39
8.54
5.31
1.65
-2.34
-6.44
-10.40
-14.04
-17.29
-20.22
-23.06
-26.02
-29.36
-33.23
-37.64
-42.43
-47.19
-51.27
-53.82
-53.94
-50.93
-44.58
-35.25
-23.86
-11.64
0.23
10.85
19.72
26.64
31.60
34.61
35.83
35.51
34.02
31.81
29.30
26.84
24.65
22.89
21.67
21.03
20.95
21.32
21.96
22.69
23.28
23.51
23.15
22.01
20.02
17.29
14.02
10.49
6.92
3.43
0.12
-2.92
-5.61
-8.00
-10.22
-12.59
-15.46
-19.12
-23.66
-28.93
-34.58
-40.10
-44.88
-48.28
-49.65
-48.49
-44.51
-37.80
-28.77
-18.20
-7.10
3.53
12.86
20.33
25.80
29.37
31.27
31.75
30.97
29.09
26.36
23.11
19.81
16.91
14.77
13.57
13.31
13.80
14.73
15.71
16.32
16.21
15.20
13.30
10.64
7.48
4.06
0.55
-2.93
-6.31
-9.53
-12.58
-15.46
-18.25
-21.11
-24.28
-27.96
-32.23
-37.04
-42.12
-47.14
-51.64
-55.17
-57.23
-57.28
-54.85
-49.61
-41.58
-31.20
-19.31
-7.01
4.67
14.94
23.36
29.79
34.23
36.79
37.58
36.86
34.99
32.49
29.88
27.63
26.01
25.13
24.94
25.29
25.97
26.77
27.42
27.73
27.54
26.78
25.43
23.51
21.04
18.16
15.06
11.95
8.93
5.99
2.94
-0.39
-4.10
-8.08
-12.08
-15.80
-19.11
-21.97
-24.55
-27.09
-29.90
-33.24
-37.25
-41.87
-46.65
-50.80
-53.33
-53.25
-49.89
-43.10
-33.30
-21.35
-8.45
4.18
15.40
24.41
30.77
34.45
35.74
35.17
33.37
31.02
28.69
26.79
25.54
24.90
24.68
24.60
24.47
24.18
23.74
23.21
22.65
22.09
21.47
20.71
19.68
18.22
16.18
13.48
10.14
6.24
2.00
-2.25
-6.19
-9.50
-12.13
-14.26
-16.33
-18.89
-22.34
-26.78
-32.06
-37.80
-43.54
-48.81
-53.07
-55.59
-55.60
-52.42
-45.83
-36.23
-24.61
-12.30
-0.59
9.56
17.65
23.63
27.73
30.28
31.58
31.85
31.22
29.78
27.69
25.21
22.67
20.38
18.59
17.40
16.80
16.77
17.26
18.13
19.15
19.98
20.17
19.39
17.52
14.71
11.27
7.59
3.98
0.64
-2.35
-5.03
-7.50
-9.90
-12.44
-15.26
-18.40
-21.81
-25.41
-29.10
-32.95
-37.04
-41.37
-45.83
-50.02
-53.34
-55.10
-54.67
-51.62
-45.82
-37.51
-27.24
-15.76
-3.90
7.53
17.75
26.12
32.18
35.76
37.01
36.41
34.58
32.18
29.67
27.34
25.40
24.07
23.55
23.90
24.96
26.32
27.44
27.92
27.58
26.50
24.92
23.03
21.00
18.92
16.85
14.81
12.71
10.35
7.51
4.04
0.05
-4.21
-8.34
-12.06
-15.26
-18.05
-20.68
-23.45
-26.62
-30.32
-34.55
-39.08
-43.48
-47.10
-49.21
-49.10
-46.21
-40.31
-31.62
-20.84
-9.03
2.51
12.65
20.62
26.17
29.44
30.82
30.72
29.53
27.56
25.17
22.72
20.55
18.89
17.77
17.07
16.62
16.29
16.02
15.85
15.85
16.01
16.19
16.10
15.42
13.91
11.47
8.31
4.76
1.16
-2.22
-5.35
-8.30
-11.19
-14.11
-17.07
-20.08
-23.18
-26.51
-30.25
-34.61
-39.61
-45.01
-50.30
-54.70
-57.35
-57.57
-54.97
-49.54
-41.66
-31.89
-20.96
-9.64
1.30
11.13
19.30
25.56
29.98
32.84
34.47
35.06
34.67
33.34
31.20
28.54
25.82
23.52
22.01
21.54
22.12
23.56
25.43
27.19
28.27
28.25
27.03
24.79
21.86
18.63
15.32
12.11
9.08
6.29
3.72
1.28
-1.31
-4.29
-7.77
-11.69
-15.78
-19.72
-23.34
-26.61
-29.64
-32.65
-35.81
-39.14
-42.40
-45.07
-46.36
-45.45
-41.69
-34.92
-25.60
-14.64
-3.22
7.55
16.84
24.13
29.13
31.78
32.21
30.76
27.98
24.56
21.19
18.47
16.76
16.14
16.39
17.11
17.81
18.14
17.94
17.23
16.19
14.96
13.62
12.20
10.64
8.92
6.96
4.71
2.03
-1.15
-4.87
-8.99
-13.30
-17.55
-21.62
-25.45
-29.13
-32.78
-36.55
-40.41
-44.19
-47.43
-49.46
-49.55
-47.11
-41.94
-34.28
-24.74
-14.14
-3.38
6.73
15.53
22.48
27.29
29.91
30.54
29.57
27.47
24.74
21.95
19.59
18.07
17.50
17.74
18.35
18.89
19.06
18.83
18.33
17.75
17.11
16.38
15.47
14.32
12.92
11.24
9.13
6.43
3.03
-1.01
-5.40
-9.79
-13.83
-17.31
-20.18
-22.66
-25.12
-28.04
-31.84
-36.62
-42.01
-47.17
-50.95
-52.25
-50.35
-45.03
-36.64
-25.97
-14.15
-2.33
8.37
17.15
23.63
27.83
30.02
30.63
30.08
28.83
27.31
25.88
24.79
24.11
23.74
23.52
23.36
23.22
23.15
23.13
23.09
22.94
22.67
22.29
21.75
20.89
19.45
17.17
14.01
10.17
6.03
1.99
-1.74
-5.05
-7.98
-10.63
-13.11
-15.62
-18.50
-22.07
-26.54
-31.87
-37.67
-43.30
-47.90
-50.54
-50.41
-47.02
-40.43
-31.27
-20.68
-9.92
-0.03
8.40
15.19
20.45
24.29
26.78
28.00
28.07
27.24
25.84
24.16
22.42
20.75
19.23
17.96
17.01
16.48
16.46
16.99
17.99
19.19
20.22
20.64
20.14
18.64
16.33
13.55
10.63
7.79
5.14
2.69
0.41
-1.81
-4.15
-6.88
-10.22
-14.21
-18.71
-23.41
-27.96
-32.12
-35.84
-39.22
-42.48
-45.81
-49.19
-52.28
-54.47
-54.92
-52.88
-47.94
-40.22
-30.30
-19.04
-7.34
4.01
14.33
23.07
29.71
33.96
35.79
35.53
33.77
31.24
28.58
26.35
24.89
24.34
24.68
25.63
26.83
27.88
28.48
28.51
28.03
27.19
26.17
25.12
24.09
23.04
21.77
20.08
17.80
14.90
11.60
8.24
5.09
2.24
-0.42
-3.11
-5.96
-8.92
-11.84
-14.60
-17.29
-20.13
-23.47
-27.53
-32.32
-37.53
-42.65
-47.02
-50.01
-51.16
-50.18
-46.98
-41.60
-34.24
-25.22
-15.08
-4.61
5.35
14.01
20.93
26.01
29.42
31.42
32.12
31.52
29.69
26.88
23.67
20.79
18.83
18.04
18.27
19.12
20.18
21.16
21.96
22.55
22.82
22.62
21.76
20.12
17.77
14.90
11.83
8.85
6.11
3.62
1.26
-1.15
-3.83
-6.88
-10.29
-13.93
-17.56
-20.96
-24.03
-26.85
-29.74
-33.10
-37.25
-42.18
-47.43
-52.15
-55.34
-56.13
-54.02
-49.02
-41.48
-31.97
-21.19
-9.92
1.08
11.01
19.22
25.29
29.14
30.96
31.16
30.21
28.59
26.75
25.06
23.75
22.95
22.62
22.64
22.92
23.38
24.01
24.76
25.54
26.21
26.59
26.54
25.96
24.84
23.21
21.19
18.87
16.33
13.60
10.71
7.71
4.72
1.95
-0.46
-2.45
-4.21
-6.01
-8.19
-10.98
-14.42
-18.35
-22.53
-26.74
-30.78
-34.57
-38.12
-41.56
-44.91
-48.10
-50.78
-52.32
-52.03
-49.30
-43.90
-36.04
-26.32
-15.53
-4.54
5.85
14.96
22.25
27.44
30.48
31.63
31.37
30.24
28.71
27.20
25.98
25.23
24.97
25.08
25.31
25.46
25.43
25.33
25.34
25.61
26.04
26.40
26.34
25.60
24.16
22.15
19.78
17.20
14.50
11.70
8.89
6.16
3.58
1.12
-1.40
-4.17
-7.31
-10.78
-14.37
-17.83
-21.05
-24.10
-27.23
-30.75
-34.78
-39.12
-43.18
-46.20
-47.40
-46.26
-42.69
-36.92
-29.48
-21.02
-12.15
-3.42
4.72
11.88
17.74
22.12
24.95
26.30
26.37
25.36
23.56
21.24
18.69
16.24
14.24
13.03
12.83
13.62
15.07
16.63
17.68
17.80
16.89
15.23
13.22
11.26
9.57
8.10
6.71
5.22
3.50
1.44
-1.00
-3.85
-7.10
-10.65
-14.35
-18.08
-21.74
-25.28
-28.75
-32.19
-35.71
-39.29
-42.87
-46.19
-48.78
-50.05
-49.40
-46.41
-40.98
-33.34
-24.07
-13.91
-3.69
5.84
14.10
20.70
25.49
28.51
29.89
29.88
28.83
27.20
25.49
24.12
23.26
22.87
22.74
22.71
22.71
22.84
23.13
23.54
23.88
23.98
23.78
23.38
22.86
22.18
21.09
19.27
16.60
13.23
9.57
6.11
3.16
0.84
-0.97
-2.49
-4.02
-5.79
-8.00
-10.77
-14.04
-17.68
-21.51
-25.45
-29.52
-33.70
-37.88
-41.73
-44.78
-46.51
-46.59
-44.85
-41.30
-35.98
-29.05
-20.84
-11.87
-2.83
5.53
12.64
18.20
22.23
24.87
26.29
26.63
25.99
24.56
22.63
20.56
18.74
17.46
16.80
16.71
17.01
17.47
17.91
18.20
18.22
17.89
17.15
16.02
14.63
13.15
11.73
10.36
8.85
6.89
4.25
0.87
-3.03
-7.08
-10.91
-14.27
-17.13
-19.60
-21.93
-24.47
-27.52
-31.31
-35.73
-40.33
-44.30
-46.67
-46.63
-43.74
-38.04
-30.06
-20.57
-10.55
-0.89
7.64
14.50
19.45
22.55
24.07
24.38
23.81
22.67
21.24
19.69
18.22
16.96
15.99
15.36
15.09
15.12
15.39
15.77
16.10
16.23
16.02
15.42
14.45
13.18
11.72
10.13
8.38
6.40
4.11
1.48
-1.37
-4.23
-6.85
-9.12
-11.17
-13.30
-15.92
-19.27
-23.38
-28.05
-32.89
-37.42
-41.16
-43.67
-44.55
-43.47
-40.23
-34.86
-27.62
-19.08
-9.94
-0.96
7.19
14.06
19.41
23.26
25.72
27.01
27.34
26.94
26.00
24.69
23.17
21.54
19.96
18.64
17.81
17.67
18.28
19.45
20.77
21.69
21.73
20.76
18.95
16.74
14.62
12.87
11.46
10.13
8.49
6.33
3.61
0.58
-2.50
-5.43
-8.16
-10.82
-13.64
-16.78
-20.31
-24.11
-27.91
-31.38
-34.18
-36.01
-36.58
-35.58
-32.72
-27.90
-21.28
-13.42
-5.10
2.88
9.92
15.72
20.20
23.34
25.07
25.32
24.13
21.82
18.89
15.92
13.36
11.50
10.38
9.93
9.99
10.34
10.70
10.80
10.49
9.77
8.78
7.66
6.50
5.29
3.90
2.19
0.06
-2.55
-5.59
-8.98
-12.58
-16.24
-19.85
-23.36
-26.87
-30.52
-34.40
-38.31
-41.72
-43.84
-43.90
-41.35
-36.18
-28.84
-20.13
-10.97
-2.11
5.91
12.81
18.43
22.65
25.34
26.44
26.10
24.65
22.63
20.65
19.12
18.19
17.58
16.86
15.74
14.28
12.85
12.02
12.11
13.05
14.34
15.33
15.52
14.65
12.77
10.03
6.65
2.85
-1.04
-4.63
-7.63
-9.91
-11.63
-13.14
-14.86
-17.06
-19.97
-23.69
-28.21
-33.26
-38.24
-42.20
-44.11
-43.20
-39.27
-32.74
-24.51
-15.50
-6.55
1.82
9.28
15.62
20.70
24.43
26.84
28.06
28.33
27.94
27.14
26.16
25.08
23.87
22.50
21.04
19.69
18.77
18.55
19.04
20.03
21.06
21.71
21.72
21.01
19.65
17.79
15.55
13.01
10.30
7.56
4.91
2.40
0.02
-2.23
-4.39
-6.55
-8.94
-11.81
-15.38
-19.69
-24.46
-29.21
-33.28
-36.09
-37.21
-36.37
-33.50
-28.75
-22.50
-15.31
-7.86
-0.74
5.64
11.07
15.49
18.86
21.09
22.11
21.96
20.78
18.87
16.65
14.48
12.68
11.46
10.88
10.81
11.04
11.30
11.35
11.11
10.50
9.55
8.28
6.68
4.77
2.58
0.21
-2.27
-4.78
-7.31
-9.89
-12.58
-15.50
-18.84
-22.75
-27.26
-32.19
-37.04
-41.13
-43.71
-44.20
-42.31
-38.09
-31.92
-24.42
-16.32
-8.30
-0.93
5.48
10.76
14.91
17.96
19.90
20.74
20.56
19.56
18.04
16.31
14.66
13.29
12.31
11.79
11.76
12.14
12.73
13.26
13.45
13.13
12.24
10.89
9.21
7.35
5.38
3.33
1.14
-1.21
-3.76
-6.46
-9.21
-11.87
-14.47
-17.17
-20.29
-24.14
-28.72
-33.67
-38.17
-41.27
-42.14
-40.35
-35.99
-29.53
-21.72
-13.34
-5.09
2.52
9.11
14.51
18.68
21.61
23.43
24.28
24.39
24.06
23.47
22.73
21.90
21.02
20.19
19.60
19.38
19.59
20.13
20.82
21.47
21.92
22.01
21.59
20.53
18.80
16.56
14.11
11.77
9.67
7.72
5.66
3.24
0.41
-2.76
-6.10
-9.52
-13.01
-16.62
-20.37
-24.19
-27.93
-31.37
-34.20
-36.05
-36.51
-35.32
-32.41
-27.95
-22.24
-15.65
-8.44
-0.91
6.55
13.44
19.18
23.27
25.50
25.86
24.63
22.22
19.15
15.96
13.27
11.59
11.21
12.12
13.98
16.24
18.30
19.58
19.72
18.62
16.49
13.77
11.02
8.63
6.70
5.03
3.29
1.21
-1.28
-4.12
-7.23
-10.59
-14.16
-17.91
-21.68
-25.32
-28.75
-32.00
-35.05
-37.76
-39.72
-40.47
-39.61
-37.01
-32.71
-26.95
-19.93
-11.95
-3.45
4.92
12.38
18.27
22.24
24.25
24.54
23.48
21.52
19.08
16.71
14.86
13.90
13.97
14.90
16.34
17.85
18.94
19.23
18.52
16.90
14.69
12.40
10.52
9.28
8.57
8.07
7.37
6.23
4.47
2.07
-0.94
-4.44
-8.23
-11.97
-15.34
-18.22
-20.75
-23.30
-26.31
-29.99
-34.30
-38.80
-42.79
-45.41
-45.83
-43.44
-38.09
-30.16
-20.48
-10.15
-0.19
8.66
15.84
21.09
24.31
25.60
25.34
24.21
22.96
22.23
22.26
22.89
23.75
24.47
24.82
24.77
24.43
23.97
23.53
23.23
23.11
23.06
22.93
22.54
21.79
20.68
19.16
17.15
14.54
11.32
7.62
3.80
0.30
-2.65
-5.10
-7.32
-9.68
-12.35
-15.38
-18.79
-22.57
-26.71
-31.08
-35.25
-38.58
-40.36
-40.09
-37.63
-33.20
-27.25
-20.38
-13.19
-6.18
0.30
6.04
11.02
15.30
18.91
21.77
23.72
24.63
24.47
23.28
21.24
18.59
15.71
13.03
11.07
10.19
10.52
11.89
13.82
15.72
17.06
17.36
16.36
14.06
10.76
6.95
3.30
0.29
-1.91
-3.52
-4.98
-6.74
-9.03
-11.89
-15.27
-19.11
-23.31
-27.78
-32.29
-36.51
-40.11
-42.76
-44.19
-44.11
-42.24
-38.48
-32.91
-25.91
-18.03
-9.82
-1.72
5.92
12.80
18.61
22.98
25.70
26.77
26.37
24.82
22.53
19.91
17.40
15.48
14.55
14.81
16.15
18.23
20.57
22.75
24.39
25.17
24.90
23.50
21.10
18.09
14.97
12.15
9.83
7.89
6.06
4.11
1.86
-0.74
-3.66
-6.86
-10.24
-13.64
-16.86
-19.87
-22.77
-25.90
-29.52
-33.57
-37.66
-41.02
-42.78
-42.32
-39.41
-34.21
-27.16
-18.85
-9.89
-0.91
7.45
14.63
20.14
23.75
25.50
25.75
25.03
23.94
22.95
22.30
21.95
21.72
21.40
20.94
20.41
19.98
19.78
19.79
19.80
19.62
19.12
18.32
17.35
16.35
15.26
13.95
12.17
9.77
6.81
3.47
0.03
-3.25
-6.24
-8.88
-11.23
-13.40
-15.55
-17.90
-20.66
-23.99
-27.80
-31.74
-35.24
-37.61
-38.33
-37.04
-33.72
-28.50
-21.71
-13.81
-5.41
2.80
10.15
16.10
20.39
23.04
24.29
24.43
23.73
22.41
20.71
18.90
17.21
15.83
14.82
14.18
13.90
13.98
14.36
14.95
15.52
15.81
15.56
14.64
13.05
10.89
8.26
5.30
2.08
-1.26
-4.54
-7.58
-10.19
-12.38
-14.24
-16.03
-18.08
-20.68
-24.04
-28.18
-32.92
-37.87
-42.48
-46.07
-47.93
-47.46
-44.31
-38.55
-30.68
-21.58
-12.25
-3.51
4.12
10.49
15.64
19.64
22.52
24.29
24.98
24.78
23.93
22.71
21.36
20.05
18.94
18.20
17.99
18.38
19.29
20.45
21.44
21.88
21.50
20.24
18.29
15.95
13.60
11.55
9.89
8.54
7.26
5.78
3.87
1.45
-1.45
-4.74
-8.33
-12.11
-15.96
-19.79
-23.49
-27.08
-30.59
-34.06
-37.33
-40.01
-41.49
-41.14
-38.47
-33.41
-26.32
-17.89
-8.99
-0.51
6.90
12.84
17.22
20.20
22.03
22.96
23.16
22.68
21.55
19.91
18.02
16.25
14.91
14.17
13.96
14.07
14.18
14.12
13.82
13.36
12.82
12.25
11.54
10.51
9.00
6.93
4.38
1.58
-1.25
-3.98
-6.65
-9.42
-12.49
-15.99
-19.91
-24.15
-28.57
-32.96
-37.03
-40.40
-42.54
-42.93
-41.13
-37.01
-30.77
-22.96
-14.34
-5.66
2.40
9.43
15.15
19.49
22.42
23.98
24.26
23.49
21.93
19.97
17.94
16.14
14.77
13.90
13.52
13.47
13.54
13.49
13.19
12.63
11.93
11.23
10.54
9.72
8.51
6.70
4.23
1.22
-2.08
-5.47
-8.86
-12.25
-15.72
-19.30
-22.96
-26.71
-30.55
-34.47
-38.38
-41.98
-44.75
-46.05
-45.26
-42.00
-36.26
-28.40
-19.09
-9.21
0.38
8.99
16.22
21.92
26.13
28.95
30.46
30.75
29.98
28.49
26.73
25.10
23.86
23.00
22.33
21.68
20.98
20.38
20.07
20.14
20.49
20.85
20.92
20.51
19.55
18.05
16.09
13.73
11.02
7.99
4.75
1.45
-1.75
-4.71
-7.37
-9.80
-12.19
-14.81
-17.92
-21.68
-26.04
-30.68
-35.06
-38.47
-40.20
-39.67
-36.60
-31.14
-23.77
-15.24
-6.38
2.10
9.65
15.89
20.63
23.76
25.28
25.37
24.32
22.53
20.42
18.32
16.49
15.08
14.14
13.66
13.56
13.72
13.94
14.12
14.16
14.03
13.71
13.12
12.12
10.57
8.41
5.68
2.57
-0.64
-3.70
-6.47
-8.90
-11.11
-13.24
-15.53
-18.22
-21.53
-25.55
-30.13
-34.79
-38.77
-41.15
-41.19
-38.53
-33.32
-26.11
-17.65
-8.77
-0.11
7.76
14.40
19.46
22.75
24.29
24.33
23.29
21.62
19.70
17.79
16.04
14.54
13.34
12.48
12.00
11.85
11.96
12.21
12.44
12.47
12.15
11.43
10.30
8.80
6.97
4.79
2.25
-0.68
-3.90
-7.19
-10.28
-13.00
-15.42
-17.82
-20.65
-24.25
-28.75
-33.96
-39.34
-44.09
-47.34
-48.22
-46.10
-40.79
-32.65
-22.59
-11.83
-1.57
7.26
14.16
19.06
22.21
23.95
24.75
25.03
25.17
25.38
25.64
25.78
25.56
24.86
23.71
22.32
20.98
19.88
19.20
18.95
19.04
19.28
19.37
18.99
17.90
16.00
13.38
10.37
7.30
4.47
2.02
-0.08
-1.99
-3.96
-6.21
-8.91
-12.11
-15.81
-19.97
-24.47
-29.18
-33.83
-38.03
-41.20
-42.75
-42.23
-39.34
-34.13
-26.91
-18.30
-9.13
-0.23
7.68
14.15
19.06
22.50
24.69
25.81
25.93
25.10
23.48
21.26
18.79
16.43
14.50
13.20
12.63
12.74
13.37
14.27
15.12
15.65
15.66
15.05
13.82
12.00
9.65
6.84
3.73
0.51
-2.61
-5.46
-8.00
-10.37
-12.80
-15.55
-18.87
-22.82
-27.27
-32.00
-36.67
-40.92
-44.35
-46.43
-46.64
-44.45
-39.64
-32.39
-23.39
-13.65
-4.19
4.16
11.00
16.31
20.24
22.95
24.51
24.96
24.35
22.89
20.87
18.67
16.62
14.95
13.80
13.29
13.41
14.09
15.18
16.35
17.25
17.53
16.95
15.48
13.27
10.68
8.08
5.79
3.87
2.21
0.58
-1.28
-3.46
-6.00
-8.87
-12.09
-15.72
-19.79
-24.17
-28.62
-32.78
-36.29
-38.81
-40.02
-39.60
-37.22
-32.70
-26.14
-18.00
-9.00
0.06
8.49
15.82
21.74
26.09
28.78
29.83
29.38
27.75
25.39
22.78
20.34
18.43
17.25
16.90
17.28
18.16
19.16
19.92
20.17
19.80
18.85
17.47
15.78
13.90
11.87
9.69
7.39
5.01
2.59
0.17
-2.27
-4.79
-7.45
-10.24
-13.16
-16.22
-19.43
-22.88
-26.61
-30.53
-34.30
-37.34
-38.99
-38.64
-35.97
-30.99
-24.14
-16.04
-7.45
0.90
8.42
14.70
19.51
22.79
24.59
25.06
24.42
22.93
20.90
18.60
16.32
14.26
12.58
11.37
10.65
10.30
10.15
9.94
9.48
8.74
7.80
6.82
5.86
4.81
3.44
1.52
-1.03
-4.04
-7.27
-10.47
-13.50
-16.41
-19.36
-22.52
-26.06
-30.07
-34.52
-39.14
-43.44
-46.61
-47.86
-46.60
-42.68
-36.45
-28.60
-19.87
-10.88
-2.01
6.41
13.99
20.24
24.71
27.16
27.69
26.75
24.99
22.98
21.20
19.89
19.14
18.87
18.95
19.21
19.47
19.58
19.45
19.04
18.33
17.32
16.14
14.96
13.96
13.19
12.49
11.46
9.74
7.11
3.62
-0.42
-4.68
-8.83
-12.65
-16.00
-18.86
-21.35
-23.79
-26.61
-30.17
-34.46
-38.99
-42.81
-44.85
-44.21
-40.41
-33.54
-24.23
-13.46
-2.38
7.86
16.41
22.78
26.97
29.28
30.15
30.00
29.12
27.73
26.04
24.28
22.69
21.42
20.54
20.05
19.88
19.98
20.26
20.57
20.76
20.65
20.10
19.10
17.71
16.04
14.18
12.17
9.94
7.44
4.65
1.65
-1.41
-4.39
-7.16
-9.76
-12.31
-14.93
-17.78
-20.95
-24.49
-28.39
-32.51
-36.53
-39.84
-41.66
-41.19
-37.92
-31.84
-23.50
-13.89
-4.14
4.82
12.39
18.28
22.44
24.94
25.90
25.53
24.17
22.21
20.07
18.04
16.28
14.82
13.67
12.88
12.50
12.52
12.83
13.20
13.34
13.07
12.32
11.13
9.56
7.64
5.32
2.57
-0.56
-3.91
-7.20
-10.20
-12.82
-15.14
-17.45
-20.10
-23.37
-27.43
-32.27
-37.65
-43.13
-48.06
-51.64
-53.07
-51.79
-47.57
-40.66
-31.67
-21.41
-10.77
-0.54
8.63
16.23
22.04
26.09
28.61
29.97
30.47
30.27
29.45
28.08
26.32
24.48
22.92
21.90
21.61
22.06
23.07
24.34
25.43
25.88
25.38
23.86
21.55
18.87
16.21
13.81
11.71
9.77
7.83
5.75
3.43
0.80
-2.16
-5.41
-8.86
-12.38
-15.95
-19.71
-23.85
-28.46
-33.38
-38.07
-41.75
-43.63
-43.14
-40.10
-34.72
-27.54
-19.22
-10.46
-1.89
6.02
12.91
18.53
22.78
25.63
27.18
27.62
27.17
26.10
24.59
22.81
20.90
19.03
17.39
16.16
15.41
15.12
15.08
15.06
14.87
14.43
13.73
12.81
11.63
10.07
8.04
5.52
2.59
-0.55
-3.72
-6.87
-10.04
-13.36
-16.96
-20.90
-25.12
-29.48
-33.73
-37.59
-40.70
-42.65
-43.01
-41.39
-37.61
-31.73
-24.15
-15.46
-6.40
2.35
10.21
16.80
21.86
25.26
26.97
27.13
26.01
24.00
21.57
19.16
17.11
15.65
14.82
14.52
14.53
14.60
14.49
14.06
13.31
12.31
11.16
9.92
8.58
7.03
5.17
2.92
0.28
-2.69
-5.85
-9.03
-12.12
-15.11
-18.06
-21.13
-24.47
-28.17
-32.18
-36.35
-40.34
-43.62
-45.49
-45.25
-42.35
-36.69
-28.62
-18.97
-8.71
1.24
10.21
17.78
23.73
27.92
30.33
31.08
30.47
28.96
27.02
25.08
23.43
22.20
21.47
21.24
21.41
21.83
22.26
22.50
22.41
21.97
21.21
20.16
18.83
17.15
15.10
12.66
9.93
7.04
4.13
1.29
-1.43
-4.07
-6.70
-9.46
-12.48
-15.89
-19.74
-24.01
-28.51
-32.88
-36.57
-38.94
-39.40
-37.50
-33.11
-26.48
-18.21
-9.10
-0.02
8.26
15.13
20.27
23.58
25.19
25.33
24.31
22.48
20.15
17.71
15.44
13.62
12.38
11.74
11.55
11.60
11.66
11.58
11.28
10.76
10.00
8.97
7.59
5.80
3.60
1.06
-1.73
-4.70
-7.78
-10.95
-14.23
-17.61
-21.14
-24.91
-28.96
-33.30
-37.69
-41.60
-44.32
-45.06
-43.28
-38.85
-32.10
-23.73
-14.54
-5.27
3.53
11.44
18.07
23.15
26.41
27.79
27.48
25.83
23.37
20.58
17.89
15.65
14.10
13.37
13.42
14.02
14.80
15.37
15.50
15.15
14.46
13.53
12.41
11.02
9.28
7.14
4.63
1.82
-1.22
-4.44
-7.77
-11.16
-14.59
-18.11
-21.91
-26.12
-30.79
-35.70
-40.38
-44.19
-46.49
-46.84
-44.94
-40.78
-34.49
-26.39
-17.05
-7.11
2.68
11.59
19.06
24.68
28.28
29.92
29.85
28.56
26.59
24.50
22.71
21.42
20.61
20.14
19.83
19.63
19.56
19.69
20.00
20.38
20.58
20.40
19.70
18.46
16.75
14.63
12.21
9.65
7.24
5.37
4.32
4.18
4.60
5.01
4.71
3.21
0.29
-4.01
-9.47
-15.85
-22.78
-29.70
-35.81
-40.14
-41.84
-40.44
-36.04
-29.26
-21.05
-12.37
-3.99
3.55
9.97
15.09
18.86
21.32
22.61
22.97
22.67
21.99
21.11
20.24
19.47
18.92
18.65
18.67
18.91
19.20
19.36
19.13
18.38
17.03
15.19
12.98
10.52
7.82
4.79
1.29
-2.71
-7.07
-11.53
-15.80
-19.70
-23.17
-26.37
-29.53
-32.97
-36.90
-41.34
-45.94
-49.98
-52.47
-52.46
-49.41
-43.35
-34.81
-24.66
-13.81
-3.14
6.64
14.86
21.02
24.82
26.33
25.96
24.39
22.35
20.47
19.18
18.59
18.58
18.88
19.17
19.23
19.05
18.72
18.39
18.07
17.64
16.95
15.91
14.57
13.01
11.29
9.29
6.80
3.67
-0.04
-4.05
-7.92
-11.33
-14.13
-16.38
-18.35
-20.39
-22.86
-26.10
-30.25
-35.18
-40.47
-45.29
-48.68
-49.75
-47.87
-42.92
-35.27
-25.69
-15.15
-4.65
5.02
13.36
20.08
25.11
28.47
30.25
30.70
30.13
28.99
27.73
26.64
25.90
25.47
25.24
25.13
25.12
25.23
25.43
25.66
25.73
25.52
24.88
23.85
22.48
20.86
19.04
17.00
14.66
11.94
8.85
5.47
2.01
-1.36
-4.51
-7.40
-10.07
-12.57
-15.03
-17.58
-20.45
-23.83
-27.85
-32.39
-37.04
-41.15
-43.91
-44.65
-42.90
-38.55
-31.84
-23.34
-13.84
-4.26
4.55
11.97
17.65
21.64
24.16
25.49
25.86
25.40
24.19
22.39
20.28
18.23
16.55
15.44
14.89
14.79
15.01
15.44
15.97
16.44
16.62
16.32
15.39
13.91
12.03
9.92
7.63
5.09
2.25
-0.79
-3.80
-6.52
-8.83
-10.90
-13.02
-15.44
-18.28
-21.43
-24.83
-28.48
-32.57
-37.18
-42.20
-47.08
-50.91
-52.72
-51.73
-47.63
-40.60
-31.27
-20.50
-9.25
1.51
10.98
18.51
23.75
26.68
27.57
26.91
25.29
23.27
21.29
19.62
18.41
17.74
17.58
17.87
18.43
19.12
19.78
20.35
20.87
21.35
21.73
21.83
21.40
20.27
18.43
16.07
13.49
10.98
8.66
6.50
4.35
2.09
-0.34
-2.91
-5.60
-8.45
-11.47
-14.67
-17.97
-21.25
-24.42
-27.55
-30.82
-34.44
-38.48
-42.67
-46.42
-48.92
-49.35
-47.12
-42.05
-34.41
-24.87
-14.33
-3.73
6.06
14.39
20.89
25.44
28.15
29.30
29.22
28.22
26.65
24.79
22.94
21.39
20.35
19.90
19.92
20.19
20.47
20.64
20.75
20.98
21.49
22.25
23.03
23.47
23.19
22.00
19.95
17.25
14.20
11.02
7.86
4.80
1.85
-0.90
-3.40
-5.61
-7.62
-9.66
-12.03
-15.00
-18.58
-22.59
-26.66
-30.46
-33.88
-37.02
-40.09
-43.10
-45.79
-47.57
-47.75
-45.74
-41.29
-34.51
-25.86
-16.07
-5.98
3.54
11.75
18.19
22.66
25.16
25.87
25.07
23.16
20.66
18.19
16.31
15.37
15.37
16.05
17.00
17.91
18.57
18.92
18.96
18.72
18.20
17.48
16.62
15.66
14.59
13.37
11.93
10.31
8.50
6.50
4.24
1.63
-1.35
-4.57
-7.78
-10.69
-13.17
-15.31
-17.35
-19.56
-22.11
-25.04
-28.24
-31.64
-35.19
-38.90
-42.66
-46.08
-48.53
-49.17
-47.29
-42.48
-34.95
-25.36
-14.76
-4.23
5.34
13.42
19.79
24.44
27.41
28.84
28.91
27.91
26.27
24.39
22.60
21.11
20.01
19.32
19.04
19.20
19.75
20.63
21.68
22.73
23.54
23.93
23.76
22.98
21.61
19.76
17.59
15.26
12.89
10.57
8.26
5.90
3.42
0.78
-1.99
-4.79
-7.53
-10.09
-12.46
-14.66
-16.79
-19.00
-21.45
-24.27
-27.57
-31.38
-35.56
-39.72
-43.25
-45.38
-45.35
-42.61
-37.02
-28.93
-19.12
-8.63
1.38
9.91
16.35
20.52
22.69
23.43
23.37
22.92
22.31
21.52
20.44
19.06
17.45
15.83
14.43
13.46
12.99
13.06
13.56
14.33
15.16
15.81
16.08
15.85
14.95
13.33
11.01
8.16
5.06
2.08
-0.54
-2.72
-4.59
-6.38
-8.28
-10.40
-12.79
-15.50
-18.57
-22.00
-25.70
-29.46
-33.09
-36.50
-39.71
-42.65
-44.98
-46.06
-45.12
-41.61
-35.44
-27.10
-17.42
-7.38
2.25
10.85
18.02
23.46
26.97
28.60
28.57
27.32
25.32
23.00
20.62
18.42
16.58
15.34
14.84
15.11
16.03
17.30
18.61
19.66
20.31
20.48
20.21
19.49
18.37
16.89
15.06
12.93
10.54
8.01
5.50
3.16
1.08
-0.79
-2.66
-4.84
-7.48
-10.53
-13.73
-16.70
-19.22
-21.33
-23.37
-25.77
-28.89
-32.75
-37.08
-41.28
-44.64
-46.45
-46.18
-43.49
-38.33
-30.94
-21.84
-11.79
-1.64
7.73
15.63
21.66
25.68
27.86
28.54
28.14
27.02
25.52
23.87
22.26
20.82
19.66
18.82
18.36
18.32
18.72
19.53
20.66
21.92
22.96
23.38
22.76
20.96
18.15
14.80
11.57
9.00
7.25
6.12
5.18
3.96
2.10
-0.57
-4.03
-8.12
-12.47
-16.69
-20.26
-22.88
-24.61
-25.90
-27.38
-29.56
-32.49
-35.70
-38.30
-39.30
-37.85
-33.58
-26.56
-17.42
-7.14
3.08
12.15
19.24
23.96
26.18
26.11
24.11
20.72
16.64
12.66
9.43
7.35
6.43
6.39
6.83
7.38
7.71
7.62
7.02
5.94
4.57
3.24
2.21
1.57
1.14
0.54
-0.66
-2.64
-5.36
-8.54
-11.87
-15.18
-18.44
-21.75
-25.26
-29.07
-33.20
-37.54
-41.76
-45.28
-47.37
-47.25
-44.39
-38.67
-30.44
-20.48
-9.78
0.70
10.16
18.01
23.90
27.67
29.38
29.30
27.84
25.54
22.90
20.39
18.32
16.87
16.09
15.92
16.20
16.74
17.35
17.85
18.11
18.06
17.67
16.98
16.01
14.74
13.10
10.97
8.27
5.07
1.58
-1.91
-5.11
-7.91
-10.45
-12.99
-15.87
-19.32
-23.38
-27.83
-32.18
-35.67
-37.44
-36.76
-33.22
-26.91
-18.50
-8.93
0.71
9.54
16.97
22.75
26.81
29.18
29.87
28.92
26.54
23.21
19.61
16.57
14.66
14.10
14.64
15.72
16.76
17.36
17.38
16.90
16.03
14.86
13.43
11.80
10.06
8.28
6.50
4.66
2.70
0.55
-1.90
-4.71
-7.98
-11.72
-15.90
-20.27
-24.48
-28.11
-30.78
-32.17
-31.99
-30.05
-26.27
-20.76
-13.88
-6.21
1.59
8.92
15.31
20.43
23.98
25.76
25.67
23.90
20.89
17.27
13.71
10.72
8.58
7.43
7.23
7.89
9.18
10.74
12.12
12.90
12.81
11.75
9.85
7.34
4.42
1.31
-1.81
-4.78
-7.55
-10.11
-12.68
-15.53
-18.89
-22.88
-27.33
-31.81
-35.66
-38.10
-38.37
-36.01
-30.94
-23.52
-14.55
-4.99
4.20
12.29
18.83
23.62
26.65
28.04
28.01
26.83
24.84
22.41
19.85
17.45
15.39
13.77
12.60
11.79
11.26
10.98
10.96
11.22
11.67
12.05
12.00
11.13
9.26
6.42
2.89
-0.94
-4.75
-8.36
-11.72
-14.92
-18.08
-21.37
-24.99
-29.06
-33.60
-38.33
-42.65
-45.68
-46.46
-44.23
-38.71
-30.28
-19.83
-8.59
2.23
11.71
19.32
24.89
28.52
30.40
30.82
30.12
28.74
27.14
25.71
24.67
24.01
23.55
23.07
22.43
21.67
20.98
20.55
20.49
20.72
20.98
20.89
20.14
18.56
16.16
13.14
9.74
6.18
2.56
-1.06
-4.58
-7.88
-10.80
-13.28
-15.40
-17.43
-19.71
-22.57
-26.20
-30.58
-35.49
-40.54
-45.03
-48.12
-48.95
-46.88
-41.74
-33.94
-24.33
-13.94
-3.67
5.85
14.26
21.30
26.77
30.49
32.47
32.89
32.18
30.84
29.29
27.82
26.58
25.62
24.99
24.77
25.00
25.73
26.86
28.17
29.35
30.02
29.90
28.83
26.85
24.14
20.99
17.69
14.56
11.88
9.80
8.34
7.27
6.19
4.61
2.22
-1.05
-4.90
-8.88
-12.59
-15.81
-18.63
-21.26
-24.02
-27.09
-30.57
-34.45
-38.60
-42.76
-46.47
-49.03
-49.61
-47.39
-41.92
-33.39
-22.70
-11.23
-0.47
8.43
14.97
19.26
21.74
22.89
23.05
22.37
21.03
19.31
17.61
16.30
15.57
15.36
15.49
15.75
16.03
16.34
16.63
16.92
17.08
17.00
16.62
15.93
14.94
13.61
11.88
9.62
6.80
3.46
-0.19
-3.84
-7.22
-10.20
-12.83
-15.29
-17.80
-20.51
-23.54
-26.95
-30.79
-35.03
-39.40
-43.32
-45.88
-46.20
-43.63
-38.12
-30.21
-20.83
-11.12
-2.03
5.80
12.04
16.62
19.66
21.39
22.01
21.75
20.77
19.28
17.46
15.53
13.67
12.07
10.88
10.19
10.15
10.80
12.07
13.67
15.20
16.15
16.17
15.11
13.05
10.22
6.87
3.30
-0.25
-3.54
-6.40
-8.80
-10.87
-12.83
-14.95
-17.48
-20.56
-24.31
-28.83
-34.12
-40.00
-45.87
-50.83
-53.78
-53.74
-50.22
-43.30
-33.68
-22.45
-10.81
0.15
9.60
17.13
22.60
26.12
27.84
28.07
27.10
25.37
23.39
21.64
20.45
19.89
19.82
20.09
20.63
21.49
22.66
23.97
25.03
25.36
24.68
23.02
20.70
18.13
15.57
13.10
10.61
8.02
5.35
2.68
0.07
-2.53
-5.30
-8.39
-11.84
-15.53
-19.29
-22.91
-26.30
-29.55
-32.87
-36.44
-40.31
-44.19
-47.44
-49.17
-48.48
-44.74
-37.91
-28.51
-17.53
-6.18
4.43
13.53
20.68
25.80
28.96
30.35
30.25
29.04
27.22
25.37
23.98
23.35
23.47
24.11
24.90
25.57
25.97
26.10
26.02
25.76
25.29
24.60
23.69
22.62
21.40
20.04
18.45
16.53
14.20
11.42
8.19
4.58
0.70
-3.23
-6.93
-10.14
-12.75
-14.86
-16.78
-18.92
-21.64
-25.15
-29.44
-34.27
-39.23
-43.64
-46.72
-47.67
-45.88
-41.15
-33.80
-24.57
-14.46
-4.43
4.73
12.49
18.54
22.84
25.46
26.61
26.53
25.50
23.75
21.56
19.21
17.03
15.32
14.24
13.80
13.89
14.38
15.18
16.17
17.16
17.80
17.66
16.43
14.04
10.77
7.15
3.68
0.71
-1.71
-3.77
-5.77
-7.92
-10.36
-13.13
-16.20
-19.58
-23.25
-27.17
-31.25
-35.31
-39.16
-42.68
-45.81
-48.48
-50.48
-51.32
-50.33
-46.84
-40.50
-31.50
-20.68
-9.16
1.89
11.55
19.30
24.97
28.57
30.27
30.28
28.93
26.70
24.14
21.84
20.30
19.79
20.27
21.38
22.62
23.45
23.60
23.12
22.28
21.42
20.72
20.11
19.39
18.34
16.83
14.88
12.55
9.89
6.95
3.78
0.51
-2.74
-5.80
-8.70
-11.46
-14.19
-16.93
-19.68
-22.41
-25.20
-28.18
-31.51
-35.24
-39.20
-42.98
-45.97
-47.40
-46.58
-43.05
-36.74
-28.06
-17.83
-7.08
3.13
12.00
19.05
24.17
27.53
29.51
30.56
31.08
31.31
31.28
30.86
29.84
28.14
25.90
23.47
21.32
19.83
19.27
19.63
20.72
22.11
23.35
23.94
23.50
21.84
19.00
15.28
11.12
7.05
3.58
1.01
-0.69
-1.82
-2.90
-4.48
-6.87
-10.04
-13.66
-17.30
-20.64
-23.66
-26.50
-29.44
-32.62
-36.02
-39.36
-42.19
-43.93
-43.95
-41.76
-37.05
-29.92
-20.82
-10.53
0.01
9.84
18.13
24.32
28.13
29.64
29.20
27.44
24.98
22.34
19.82
17.58
15.76
14.48
13.83
13.81
14.19
14.62
14.72
14.25
13.18
11.65
9.83
7.87
5.85
3.73
1.52
-0.76
-3.09
-5.45
-7.89
-10.47
-13.26
-16.25
-19.34
-22.36
-25.15
-27.74
-30.30
-33.16
-36.57
-40.49
-44.45
-47.62
-49.02
-47.78
-43.42
-35.94
-25.85
-14.11
-2.00
9.19
18.35
24.86
28.68
30.20
30.10
29.04
27.50
25.85
24.36
23.21
22.50
22.13
21.84
21.33
20.44
19.27
18.10
17.23
16.77
16.67
16.68
16.47
15.79
14.46
12.44
9.78
6.61
3.10
-0.60
-4.29
-7.85
-11.04
-13.66
-15.61
-17.02
-18.31
-20.02
-22.62
-26.26
-30.71
-35.42
-39.81
-43.27
-45.25
-45.17
-42.52
-37.00
-28.73
-18.44
-7.25
3.56
12.95
20.36
25.70
29.17
31.19
32.18
32.44
32.13
31.32
29.93
27.95
25.51
22.91
20.50
18.61
17.39
16.90
17.07
17.77
18.73
19.58
19.82
19.03
17.03
14.00
10.39
6.77
3.58
1.09
-0.70
-1.97
-3.02
-4.18
-5.78
-8.01
-10.88
-14.26
-17.87
-21.49
-25.06
-28.55
-31.98
-35.26
-38.19
-40.35
-41.31
-40.62
-37.90
-33.02
-26.14
-17.69
-8.33
1.33
10.70
19.27
26.48
31.77
34.62
34.86
32.80
29.19
24.99
21.08
17.90
15.58
13.98
12.93
12.32
12.06
11.97
11.78
11.21
10.09
8.40
6.31
4.05
1.92
0.08
-1.48
-2.88
-4.37
-6.22
-8.56
-11.39
-14.56
-17.90
-21.28
-24.68
-28.11
-31.55
-34.93
-38.15
-41.05
-43.48
-45.14
-45.56
-44.15
-40.36
-33.93
-25.06
-14.43
-3.07
7.92
17.55
25.18
30.49
33.51
34.52
33.94
32.26
29.94
27.34
24.80
22.56
20.83
19.71
19.14
18.91
18.70
18.18
17.16
15.63
13.72
11.70
9.84
8.28
7.04
5.93
4.71
3.09
0.94
-1.73
-4.76
-7.98
-11.26
-14.54
-17.82
-21.08
-24.27
-27.38
-30.38
-33.28
-36.04
-38.41
-39.92
-39.91
-37.76
-33.06
-25.85
-16.61
-6.22
4.24
13.74
21.48
27.07
30.51
32.07
32.16
31.15
29.36
27.12
24.82
22.81
21.35
20.40
19.67
18.75
17.37
15.55
13.59
11.90
10.69
9.95
9.37
8.59
7.32
5.50
3.17
0.43
-2.66
-6.08
-9.75
-13.49
-17.04
-20.12
-22.62
-24.63
-26.52
-28.67
-31.31
-34.22
-36.70
-37.78
-36.52
-32.44
-25.66
-16.85
-7.02
2.79
11.73
19.18
24.78
28.33
29.85
29.47
27.55
24.56
21.08
17.73
15.00
13.18
12.28
12.03
11.97
11.67
10.83
9.43
7.69
5.83
4.05
2.41
0.80
-0.93
-2.95
-5.40
-8.36
-11.86
-15.85
-20.19
-24.71
-29.24
-33.64
-37.79
-41.48
-44.42
-46.12
-46.01
-43.53
-38.37
-30.60
-20.75
-9.77
1.21
11.09
19.15
25.08
28.96
31.03
31.60
30.86
29.03
26.40
23.32
20.23
17.45
15.18
13.48
12.35
11.72
11.51
11.55
11.52
11.12
10.01
8.05
5.23
1.76
-2.07
-5.91
-9.49
-12.68
-15.57
-18.53
-22.01
-26.43
-31.93
-38.26
-44.82
-50.73
-55.01
-56.69
-54.97
-49.38
-40.07
-27.85
-14.13
-0.58
11.34
20.70
27.26
31.29
33.21
33.41
32.12
29.58
26.24
22.76
19.85
18.05
17.54
18.04
19.03
19.97
20.57
20.80
20.88
21.02
21.21
21.15
20.34
18.38
15.09
10.75
5.96
1.39
-2.50
-5.76
-8.81
-12.30
-16.70
-22.14
-28.36
-34.84
-40.95
-46.03
-49.41
-50.37
-48.21
-42.47
-33.15
-20.94
-7.14
6.64
18.88
28.57
35.36
39.39
41.13
41.10
39.81
37.71
35.33
33.14
31.53
30.71
30.59
30.93
31.49
32.04
32.44
32.59
32.37
31.69
30.57
29.05
27.17
24.93
22.15
18.68
14.46
9.62
4.49
-0.57
-5.31
-9.53
-13.22
-16.45
-19.49
-22.67
-26.46
-31.26
-37.15
-43.71
-49.98
-54.61
-56.25
-53.87
-47.07
-36.33
-22.86
-8.34
5.47
17.19
26.08
32.02
35.33
36.46
35.77
33.68
30.61
27.15
23.96
21.55
20.15
19.66
19.77
20.11
20.45
20.68
20.74
20.61
20.21
19.47
18.33
16.76
14.72
12.15
9.01
5.32
1.20
-3.13
-7.39
-11.32
-14.77
-17.81
-20.73
-24.04
-28.25
-33.65
-40.12
-46.98
-53.11
-57.17
-57.95
-54.69
-47.25
-36.21
-22.69
-8.16
5.84
18.05
27.61
34.16
37.73
38.65
37.34
34.36
30.34
25.97
21.96
18.92
17.17
16.68
17.15
18.06
18.94
19.49
19.62
19.48
19.24
18.98
18.49
17.40
15.23
11.80
7.20
1.93
-3.43
-8.39
-12.77
-16.64
-20.22
-23.80
-27.66
-32.08
-37.35
-43.55
-50.28
-56.58
-61.03
-62.06
-58.54
-50.12
-37.41
-21.86
-5.41
10.05
22.96
32.45
38.36
41.04
41.13
39.33
36.25
32.51
28.73
25.52
23.37
22.47
22.63
23.41
24.27
24.77
24.70
24.05
22.89
21.38
19.70
17.93
16.04
13.87
11.13
7.59
3.21
-1.79
-6.97
-11.94
-16.43
-20.38
-23.92
-27.32
-30.96
-35.24
-40.59
-47.18
-54.71
-62.29
-68.48
-71.65
-70.42
-64.08
-52.84
-37.83
-20.79
-3.64
11.90
24.66
34.14
40.33
43.60
44.43
43.36
41.00
38.07
35.26
33.12
31.93
31.54
31.60
31.74
31.72
31.55
31.33
31.15
31.06
30.95
30.61
29.80
28.24
25.75
22.31
18.10
13.51
8.95
4.68
0.67
-3.34
-7.64
-12.39
-17.47
-22.58
-27.39
-31.69
-35.54
-39.24
-43.19
-47.81
-53.34
-59.69
-66.27
-72.02
-75.54
-75.47
-70.84
-61.50
-48.19
-32.34
-15.66
0.30
14.41
26.07
34.99
41.11
44.53
45.52
44.58
42.37
39.65
37.08
35.05
33.68
32.90
32.50
32.30
32.25
32.32
32.56
32.95
33.37
33.57
33.27
32.19
30.15
27.21
23.61
19.72
15.88
12.31
9.01
5.82
2.48
-1.23
-5.39
-9.93
-14.63
-19.21
-23.46
-27.26
-30.66
-33.88
-37.27
-41.25
-46.14
-52.02
-58.63
-65.28
-70.90
-74.23
-74.09
-69.65
-60.70
-47.75
-31.97
-14.93
1.73
16.57
28.64
37.44
42.96
45.55
45.70
44.04
41.22
37.89
34.65
32.01
30.25
29.45
29.49
30.11
31.01
31.89
32.53
32.75
32.42
31.50
29.95
27.86
25.33
22.47
19.41
16.27
13.09
9.89
6.59
3.04
-0.87
-5.17
-9.73
-14.32
-18.64
-22.48
-25.81
-28.78
-31.66
-34.81
-38.63
-43.39
-49.12
-55.40
-61.35
-65.66
-66.98
-64.24
-57.03
-45.75
-31.50
-15.84
-0.48
13.11
23.94
31.65
36.43
38.84
39.52
38.94
37.40
35.05
32.10
28.86
25.65
22.77
20.39
18.60
17.50
17.15
17.51
18.40
19.36
19.88
19.58
18.39
16.44
13.93
10.97
7.49
3.37
-1.37
-6.46
-11.52
-16.17
-20.19
-23.68
-26.94
-30.48
-34.77
-40.10
-46.42
-53.35
-60.16
-65.94
-69.67
-70.36
-67.26
-59.96
-48.63
-34.17
-18.09
-2.15
12.07
23.58
32.12
37.96
41.54
43.22
43.22
41.66
38.79
34.97
30.65
26.33
22.52
19.66
18.11
17.97
19.04
20.78
22.51
23.60
23.67
22.55
20.23
16.80
12.45
7.46
2.26
-2.68
-7.08
-10.88
-14.30
-17.67
-21.28
-25.38
-30.13
-35.63
-41.87
-48.73
-55.84
-62.60
-68.23
-71.77
-72.26
-68.88
-61.16
-49.29
-34.17
-17.26
-0.27
15.29
28.39
38.57
45.75
50.09
51.81
51.25
48.89
45.33
41.22
37.19
33.73
31.10
29.51
28.95
29.31
30.31
31.54
32.51
32.79
32.03
30.08
27.01
23.12
18.87
14.72
11.00
7.80
4.95
2.11
-1.08
-4.80
-9.14
-14.00
-19.15
-24.38
-29.53
-34.57
-39.58
-44.68
-49.87
-54.88
-59.02
-61.27
-60.50
-55.85
-47.02
-34.47
-19.39
-3.40
11.85
24.96
35.13
42.11
46.13
47.63
46.99
44.52
40.56
35.62
30.41
25.78
22.40
20.58
20.15
20.56
21.16
21.42
21.04
20.02
18.46
16.52
14.29
11.80
9.01
5.82
2.13
-2.07
-6.67
-11.46
-16.20
-20.74
-25.05
-29.26
-33.56
-38.14
-43.13
-48.57
-54.29
-59.78
-64.16
-66.20
-64.68
-58.77
-48.43
-34.47
-18.41
-2.00
13.18
26.01
35.90
42.70
46.53
47.65
46.38
43.14
38.52
33.22
27.99
23.55
20.42
18.76
18.42
18.93
19.70
20.18
20.01
19.06
17.43
15.38
13.14
10.89
8.59
6.09
3.15
-0.34
-4.37
-8.79
-13.45
-18.26
-23.25
-28.47
-33.93
-39.50
-45.03
-50.40
-55.51
-60.13
-63.81
-65.61
-64.51
-59.62
-50.57
-37.76
-22.27
-5.58
10.81
25.59
37.90
47.19
53.29
56.27
56.33
53.86
49.44
43.88
38.10
33.09
29.53
27.67
27.25
27.73
28.47
29.02
29.10
28.61
27.51
25.77
23.49
20.86
18.12
15.47
12.90
10.19
7.00
3.15
-1.38
-6.41
-11.62
-16.73
-21.60
-26.16
-30.49
-34.73
-39.07
-43.68
-48.68
-53.88
-58.80
-62.53
-63.83
-61.52
-54.79
-43.62
-28.84
-12.02
5.01
20.54
33.37
42.80
48.55
50.67
49.48
45.65
40.10
33.99
28.37
23.96
21.05
19.50
18.95
18.99
19.13
19.00
18.35
17.13
15.53
13.89
12.48
11.30
10.02
8.17
5.33
1.36
-3.63
-9.32
-15.30
-21.13
-26.42
-30.85
-34.35
-37.21
-40.05
-43.60
-48.38
-54.34
-60.90
-66.88
-70.82
-71.22
-66.93
-57.45
-43.17
-25.45
-6.29
12.08
27.87
40.00
48.09
52.29
53.07
51.11
47.21
42.37
37.59
33.63
30.82
29.10
28.14
27.59
27.13
26.56
25.73
24.61
23.27
21.87
20.59
19.46
18.29
16.78
14.65
11.77
8.12
3.73
-1.32
-6.89
-12.66
-18.14
-22.82
-26.40
-29.03
-31.28
-33.91
-37.54
-42.54
-48.85
-55.92
-62.73
-67.86
-69.67
-66.75
-58.35
-44.78
-27.42
-8.37
10.12
26.09
38.31
46.38
50.57
51.64
50.53
48.14
45.17
42.03
38.92
35.96
33.28
31.03
29.32
28.17
27.50
27.13
26.90
26.69
26.37
25.85
24.96
23.58
21.61
18.93
15.50
11.39
6.82
2.08
-2.44
-6.53
-10.15
-13.44
-16.64
-19.93
-23.42
-27.18
-31.33
-36.03
-41.38
-47.28
-53.28
-58.72
-62.68
-64.26
-62.63
-57.28
-48.08
-35.62
-21.06
-5.95
8.16
20.16
29.55
36.36
40.88
43.40
44.03
42.89
40.18
36.22
31.54
26.70
22.26
18.60
16.00
14.49
13.89
13.92
14.22
14.50
14.51
14.04
12.81
10.64
7.49
3.56
-0.69
-4.77
-8.35
-11.44
-14.33
-17.40
-20.88
-24.81
-29.00
-33.30
-37.67
-42.23
-47.13
-52.39
-57.70
-62.40
-65.56
-66.20
-63.46
-56.91
-46.63
-33.22
-17.69
-1.34
14.46
28.44
39.63
47.51
52.01
53.44
52.37
49.40
45.14
40.14
34.97
30.24
26.50
24.15
23.26
23.59
24.61
25.71
26.40
26.31
25.31
23.46
20.93
18.01
15.04
12.23
9.63
7.12
4.45
1.34
-2.33
-6.59
-11.31
-16.25
-21.15
-25.80
-30.07
-34.04
-37.95
-42.11
-46.71
-51.64
-56.36
-60.00
-61.42
-59.62
-53.87
-44.04
-30.66
-14.89
1.66
17.28
30.53
40.50
46.96
50.17
50.70
49.23
46.42
42.82
38.92
35.13
31.73
28.90
26.69
25.05
23.89
23.05
22.33
21.55
20.54
19.27
17.74
16.01
14.09
11.89
9.32
6.34
3.05
-0.34
-3.66
-6.86
-10.09
-13.60
-17.55
-21.90
-26.41
-30.77
-34.79
-38.52
-42.20
-46.09
-50.23
-54.21
-57.19
-58.08
-55.79
-49.62
-39.55
-26.30
-11.23
4.02
17.87
29.22
37.47
42.60
44.96
45.03
43.40
40.60
37.13
33.39
29.70
26.28
23.19
20.44
18.03
15.95
14.22
12.90
12.03
11.61
11.47
11.30
10.69
9.26
6.82
3.39
-0.71
-5.09
-9.37
-13.36
-17.04
-20.48
-23.75
-26.89
-29.92
-32.95
-36.21
-40.05
-44.71
-50.19
-56.06
-61.55
-65.49
-66.68
-64.10
-57.25
-46.24
-31.92
-15.69
0.81
15.96
28.58
38.03
44.20
47.46
48.36
47.52
45.49
42.73
39.62
36.45
33.45
30.73
28.38
26.40
24.84
23.74
23.13
22.96
23.06
23.10
22.73
21.66
19.77
17.17
14.08
10.76
7.38
3.96
0.48
-3.13
-6.88
-10.71
-14.50
-18.18
-21.75
-25.27
-28.90
-32.81
-37.16
-41.98
-47.23
-52.62
-57.58
-61.26
-62.63
-60.69
-54.76
-44.75
-31.23
-15.44
0.96
16.28
29.15
38.78
45.03
48.28
49.23
48.55
46.69
43.90
40.37
36.33
32.19
28.47
25.63
23.85
23.02
22.77
22.69
22.41
21.72
20.55
18.88
16.78
14.36
11.78
9.19
6.68
4.19
1.58
-1.36
-4.80
-8.77
-13.24
-18.05
-22.97
-27.76
-32.19
-36.13
-39.61
-42.90
-46.33
-50.16
-54.26
-58.01
-60.33
-59.95
-55.83
-47.56
-35.50
-20.75
-4.88
10.46
23.86
34.40
41.68
45.76
47.03
46.04
43.35
39.55
35.19
30.79
26.77
23.44
20.93
19.21
18.18
17.67
17.54
17.62
17.70
17.54
16.94
15.79
14.15
12.09
9.70
6.92
3.66
-0.20
-4.65
-9.50
-14.46
-19.25
-23.65
-27.60
-31.17
-34.54
-37.96
-41.76
-46.26
-51.57
-57.50
-63.39
-68.14
-70.37
-68.75
-62.43
-51.28
-36.06
-18.29
0.12
17.28
31.75
42.74
50.11
54.22
55.65
55.03
52.91
49.74
45.93
41.88
37.97
34.53
31.74
29.66
28.20
27.26
26.75
26.59
26.69
26.86
26.79
26.10
24.46
21.78
18.21
14.14
10.06
6.35
3.13
0.28
-2.52
-5.59
-9.15
-13.19
-17.55
-21.99
-26.33
-30.55
-34.78
-39.27
-44.20
-49.52
-54.92
-59.74
-63.01
-63.66
-60.73
-53.65
-42.52
-28.24
-12.29
3.58
17.81
29.35
37.81
43.29
46.15
46.83
45.72
43.18
39.62
35.44
31.09
26.94
23.28
20.39
18.50
17.68
17.82
18.56
19.34
19.64
19.13
17.76
15.70
13.22
10.48
7.57
4.49
1.17
-2.43
-6.31
-10.48
-14.89
-19.53
-24.32
-29.18
-34.04
-38.86
-43.65
-48.45
-53.31
-58.11
-62.48
-65.69
-66.69
-64.44
-58.20
-47.89
-34.14
-18.24
-1.73
13.91
27.51
38.32
45.95
50.34
51.72
50.54
47.42
43.05
38.11
33.14
28.61
24.85
22.05
20.29
19.50
19.44
19.79
20.21
20.37
20.09
19.28
17.95
16.18
14.03
11.53
8.63
5.31
1.57
-2.52
-6.85
-11.36
-15.96
-20.63
-25.33
-29.94
-34.39
-38.73
-43.18
-48.02
-53.44
-59.14
-64.27
-67.47
-67.22
-62.36
-52.51
-38.31
-21.23
-3.21
13.86
28.51
39.90
47.79
52.35
53.97
53.14
50.43
46.44
41.80
37.13
32.88
29.39
26.79
25.10
24.24
24.05
24.29
24.67
24.89
24.72
24.01
22.72
20.86
18.49
15.67
12.44
8.87
4.99
0.83
-3.60
-8.23
-13.00
-17.75
-22.35
-26.75
-31.03
-35.41
-40.16
-45.45
-51.22
-57.00
-61.98
-65.01
-64.87
-60.60
-51.83
-39.01
-23.36
-6.60
9.43
23.30
34.11
41.54
45.73
47.04
45.98
43.18
39.36
35.19
31.22
27.72
24.73
22.16
19.93
18.09
16.75
15.96
15.67
15.76
15.98
16.15
16.06
15.53
14.36
12.33
9.29
5.22
0.30
-5.12
-10.67
-15.97
-20.76
-24.95
-28.62
-32.00
-35.43
-39.34
-44.12
-50.00
-56.86
-64.14
-70.75
-75.21
-75.99
-71.94
-62.68
-48.85
-31.89
-13.64
4.10
19.95
33.11
43.18
50.02
53.63
54.20
52.16
48.25
43.39
38.44
34.08
30.59
28.00
26.25
25.28
25.11
25.74
27.03
28.64
30.07
30.83
30.56
29.17
26.77
23.62
19.98
16.09
12.11
8.15
4.25
0.33
-3.72
-8.05
-12.71
-17.64
-22.64
-27.49
-32.07
-36.49
-41.05
-46.18
-52.16
-58.95
-65.93
-71.95
-75.48
-75.00
-69.48
-58.80
-43.78
-26.01
-7.43
10.15
25.39
37.43
45.95
50.94
52.77
51.97
49.25
45.36
40.95
36.52
32.43
28.99
26.41
24.89
24.46
25.04
26.36
28.04
29.61
30.60
30.61
29.40
27.00
23.76
20.19
16.80
13.78
11.03
8.12
4.62
0.29
-4.79
-10.30
-15.79
-20.90
-25.35
-29.06
-32.20
-35.20
-38.73
-43.49
-49.83
-57.41
-65.04
-70.83
-72.77
-69.38
-60.14
-45.76
-27.91
-8.79
9.45
25.12
37.19
45.35
49.80
51.10
49.93
47.02
43.07
38.74
34.52
30.72
27.45
24.66
22.26
20.28
18.89
18.26
18.51
19.51
20.91
22.26
23.05
22.88
21.54
18.99
15.39
11.05
6.32
1.52
-3.14
-7.65
-12.04
-16.37
-20.65
-24.79
-28.73
-32.49
-36.22
-40.21
-44.79
-50.25
-56.66
-63.69
-70.49
-75.71
-77.75
-75.15
-67.13
-53.88
-36.63
-17.39
1.65
18.65
32.46
42.70
49.53
53.35
54.60
53.68
51.03
47.20
42.86
38.68
35.19
32.66
31.06
30.19
29.75
29.52
29.38
29.36
29.47
29.71
29.94
29.86
29.13
27.44
24.66
20.95
16.68
12.31
8.23
4.54
1.11
-2.37
-6.19
-10.47
-15.06
-19.66
-23.98
-27.85
-31.34
-34.68
-38.15
-42.09
-46.72
-52.17
-58.30
-64.56
-69.83
-72.63
-71.42
-65.14
-53.63
-37.79
-19.41
-0.68
16.37
30.26
40.31
46.56
49.49
49.76
48.04
44.84
40.65
35.92
31.15
26.77
23.14
20.40
18.55
17.51
17.17
17.47
18.27
19.31
20.29
20.85
20.72
19.70
17.75
14.92
11.35
7.22
2.78
-1.83
-6.51
-11.20
-15.79
-20.17
-24.19
-27.79
-31.12
-34.57
-38.65
-43.82
-50.27
-57.77
-65.59
-72.49
-76.84
-76.97
-71.68
-60.69
-44.88
-26.20
-7.04
10.43
24.83
35.69
43.21
47.84
50.05
50.12
48.34
45.04
40.78
36.16
31.77
28.06
25.26
23.45
22.48
22.20
22.38
22.78
23.18
23.33
23.02
22.09
20.57
18.61
16.48
14.37
12.25
9.90
7.00
3.37
-1.02
-5.97
-11.23
-16.54
-21.77
-26.81
-31.60
-36.17
-40.68
-45.49
-50.93
-57.04
-63.29
-68.49
-70.99
-69.21
-62.20
-50.00
-33.78
-15.47
2.73
18.94
31.95
41.32
47.22
50.16
50.74
49.48
46.82
43.15
38.85
34.33
30.02
26.36
23.73
22.33
22.14
22.84
23.92
24.85
25.22
24.91
24.02
22.71
21.08
19.05
16.50
13.31
9.47
5.13
0.49
-4.25
-8.96
-13.53
-17.89
-22.04
-26.03
-30.04
-34.33
-39.15
-44.64
-50.64
-56.57
-61.45
-64.03
-63.05
-57.68
-47.85
-34.37
-18.76
-2.79
11.97
24.45
34.12
40.86
44.70
45.76
44.23
40.54
35.38
29.54
23.83
18.84
14.93
12.17
10.42
9.43
8.88
8.58
8.47
8.65
9.16
9.80
10.07
9.36
7.16
3.33
-1.72
-7.34
-12.84
-17.84
-22.33
-26.57
-30.88
-35.50
-40.60
-46.27
-52.55
-59.25
-65.74
-70.88
-73.18
-71.24
-64.23
-52.29
-36.53
-18.80
-1.11
14.92
28.26
38.51
45.71
50.06
51.81
51.25
48.79
44.96
40.41
35.71
31.35
27.70
24.98
23.30
22.63
22.75
23.27
23.79
23.92
23.49
22.51
21.05
19.08
16.46
12.99
8.58
3.36
-2.22
-7.63
-12.45
-16.55
-20.13
-23.59
-27.34
-31.65
-36.70
-42.55
-49.08
-55.87
-61.98
-65.99
-66.32
-61.70
-51.77
-37.37
-20.27
-2.65
13.59
27.24
37.82
45.27
49.74
51.39
50.52
47.65
43.54
39.00
34.70
31.03
28.15
26.13
25.05
24.91
25.56
26.63
27.61
28.08
27.81
26.79
25.13
22.94
20.30
17.30
14.12
10.92
7.80
4.64
1.18
-2.86
-7.49
-12.53
-17.52
-22.09
-26.02
-29.39
-32.61
-36.22
-40.71
-46.33
-52.80
-59.24
-64.22
-66.09
-63.55
-56.08
-44.13
-29.00
-12.47
3.71
18.14
29.92
38.59
44.03
46.40
46.08
43.66
39.85
35.48
31.26
27.78
25.30
23.81
23.07
22.77
22.66
22.65
22.79
23.12
23.53
23.76
23.38
22.06
19.66
16.32
12.46
8.54
4.95
1.86
-0.81
-3.37
-6.19
-9.54
-13.52
-18.00
-22.65
-27.10
-31.06
-34.43
-37.35
-40.20
-43.42
-47.47
-52.60
-58.73
-65.26
-71.08
-74.72
-74.68
-69.91
-60.17
-46.19
-29.48
-11.95
4.63
19.04
30.65
39.36
45.29
48.64
49.59
48.45
45.68
41.94
38.00
34.53
31.98
30.49
29.97
30.17
30.86
31.81
32.87
33.89
34.70
35.11
34.88
33.85
31.98
29.38
26.22
22.72
19.03
15.23
11.39
7.58
3.93
0.64
-2.24
-4.79
-7.30
-10.07
-13.25
-16.77
-20.40
-23.90
-27.15
-30.29
-33.57
-37.24
-41.47
-46.32
-51.79
-57.71
-63.64
-68.79
-72.02
-72.12
-68.11
-59.68
-47.32
-32.22
-15.97
-0.13
14.06
25.83
34.95
41.50
45.73
47.85
48.00
46.34
43.19
39.12
34.92
31.36
28.93
27.75
27.60
28.17
29.16
30.36
31.61
32.69
33.29
33.09
31.85
29.58
26.47
22.84
19.05
15.43
12.17
9.29
6.61
3.86
0.72
-2.94
-7.09
-11.48
-15.82
-19.89
-23.64
-27.15
-30.57
-34.06
-37.75
-41.78
-46.31
-51.45
-57.13
-62.94
-68.06
-71.30
-71.42
-67.43
-59.01
-46.58
-31.30
-14.72
1.55
16.14
28.10
36.89
42.36
44.74
44.49
42.33
39.04
35.33
31.73
28.61
26.12
24.41
23.50
23.39
23.92
24.82
25.75
26.42
26.67
26.46
25.79
24.65
22.97
20.68
17.79
14.44
10.90
7.40
4.10
1.03
-1.90
-4.82
-7.83
-11.01
-14.40
-18.00
-21.78
-25.68
-29.57
-33.39
-37.12
-40.90
-44.98
-49.65
-54.98
-60.66
-65.95
-69.68
-70.56
-67.54
-60.11
-48.56
-33.88
-17.56
-1.18
13.89
26.65
36.54
43.39
47.30
48.60
47.77
45.37
41.97
38.11
34.28
30.90
28.31
26.67
26.03
26.25
27.08
28.24
29.47
30.57
31.33
31.56
31.10
29.86
27.85
25.14
21.87
18.21
14.39
10.67
7.30
4.46
2.13
0.08
-2.06
-4.67
-8.00
-12.02
-16.53
-21.19
-25.69
-29.87
-33.71
-37.38
-41.11
-45.12
-49.51
-54.21
-58.89
-62.92
-65.42
-65.37
-61.85
-54.33
-42.97
-28.69
-13.03
2.28
15.76
26.50
34.25
39.23
41.86
42.51
41.45
38.91
35.26
31.05
26.95
23.55
21.24
20.05
19.71
19.87
20.22
20.63
21.13
21.75
22.37
22.72
22.37
20.99
18.47
15.01
11.04
7.06
3.36
0.03
-3.15
-6.47
-10.15
-14.21
-18.42
-22.46
-26.04
-29.09
-31.79
-34.48
-37.62
-41.58
-46.63
-52.71
-59.40
-65.76
-70.39
-71.72
-68.42
-59.92
-46.71
-30.27
-12.63
4.24
18.94
30.76
39.61
45.64
49.05
50.00
48.71
45.65
41.54
37.17
33.33
30.50
28.88
28.43
28.90
29.97
31.25
32.31
32.79
32.49
31.43
29.78
27.85
25.85
23.84
21.75
19.45
16.87
14.00
10.89
7.58
4.09
0.41
-3.46
-7.42
-11.38
-15.18
-18.70
-21.87
-24.70
-27.31
-29.99
-33.15
-37.12
-42.09
-47.98
-54.36
-60.58
-65.79
-69.02
-69.34
-65.95
-58.43
-47.01
-32.58
-16.56
-0.62
13.78
25.72
34.78
40.99
44.64
46.02
45.45
43.27
39.88
35.80
31.68
28.14
25.68
24.51
24.52
25.35
26.56
27.78
28.84
29.71
30.38
30.72
30.52
29.50
27.49
24.52
20.81
16.66
12.43
8.37
4.62
1.20
-1.99
-5.13
-8.40
-11.93
-15.69
-19.47
-23.04
-26.24
-29.16
-32.10
-35.52
-39.78
-45.00
-50.87
-56.66
-61.33
-63.64
-62.53
-57.33
-48.04
-35.43
-20.80
-5.74
8.31
20.26
29.53
35.87
39.34
40.20
38.98
36.38
33.15
29.88
26.91
24.29
21.93
19.80
18.01
16.75
16.19
16.32
16.89
17.54
17.87
17.61
16.63
14.93
12.59
9.74
6.50
3.04
-0.52
-4.08
-7.60
-11.11
-14.71
-18.48
-22.44
-26.50
-30.55
-34.52
-38.49
-42.76
-47.62
-53.21
-59.21
-64.79
-68.69
-69.53
-66.25
-58.47
-46.65
-31.93
-15.89
-0.14
14.04
25.78
34.68
40.70
44.04
45.05
44.28
42.33
39.81
37.19
34.70
32.41
30.31
28.41
26.82
25.70
25.15
25.21
25.76
26.56
27.30
27.58
27.00
25.29
22.44
18.69
14.61
10.76
7.47
4.76
2.29
-0.37
-3.54
-7.33
-11.57
-16.00
-20.36
-24.51
-28.46
-32.40
-36.60
-41.33
-46.73
-52.56
-58.16
-62.51
-64.38
-62.65
-56.67
-46.45
-32.79
-17.10
-1.13
13.49
25.56
34.46
40.21
43.13
43.71
42.42
39.68
35.99
31.93
28.13
25.10
23.16
22.32
22.36
22.98
23.88
24.85
25.70
26.29
26.41
25.89
24.61
22.58
19.93
16.93
13.83
10.80
7.72
4.32
0.33
-4.36
-9.47
-14.43
-18.66
-21.86
-24.22
-26.38
-29.14
-33.07
-38.33
-44.56
-51.00
-56.70
-60.60
-61.66
-59.00
-52.13
-41.17
-27.04
-11.32
4.16
17.64
28.01
34.91
38.68
39.98
39.59
38.06
35.71
32.75
29.41
25.97
22.75
19.95
17.65
15.82
14.50
13.73
13.62
14.07
14.74
15.14
14.80
13.49
11.30
8.45
5.13
1.39
-2.78
-7.35
-12.09
-16.64
-20.69
-24.10
-26.97
-29.61
-32.35
-35.66
-39.93
-45.50
-52.32
-59.83
-66.75
-71.37
-72.01
-67.57
-57.91
-43.96
-27.37
-10.14
5.94
19.63
30.37
38.12
43.26
46.22
47.37
47.00
45.38
42.87
39.91
36.82
33.82
30.98
28.38
26.22
24.86
24.61
25.61
27.56
29.81
31.56
32.15
31.23
28.83
25.31
21.11
16.73
12.53
8.73
5.32
2.13
-1.10
-4.58
-8.36
-12.34
-16.37
-20.30
-24.12
-27.99
-32.13
-36.76
-42.04
-47.94
-54.19
-60.21
-65.12
-67.81
-67.14
-62.32
-53.12
-40.07
-24.37
-7.64
8.47
22.61
33.95
42.15
47.23
49.34
48.78
45.97
41.57
36.50
31.83
28.43
26.73
26.56
27.27
28.13
28.72
29.01
29.29
29.79
30.41
30.68
30.01
28.06
24.95
21.20
17.48
14.21
11.41
8.70
5.61
1.81
-2.68
-7.57
-12.37
-16.65
-20.22
-23.15
-25.70
-28.31
-31.47
-35.57
-40.81
-47.00
-53.46
-59.01
-62.17
-61.61
-56.51
-46.95
-33.82
-18.66
-3.18
11.02
22.84
31.70
37.53
40.61
41.40
40.37
37.94
34.42
30.19
25.71
21.55
18.15
15.78
14.36
13.68
13.46
13.60
14.08
14.86
15.78
16.44
16.40
15.30
12.86
9.11
4.26
-1.28
-6.99
-12.33
-16.91
-20.62
-23.67
-26.51
-29.65
-33.54
-38.48
-44.58
-51.63
-59.00
-65.52
-69.66
-69.90
-65.20
-55.48
-41.71
-25.58
-9.02
6.27
19.21
29.28
36.41
40.78
42.65
42.38
40.42
37.33
33.73
30.18
27.16
24.91
23.46
22.67
22.29
22.08
21.90
21.74
21.64
21.59
21.48
21.00
19.80
17.56
14.14
9.57
4.17
-1.65
-7.43
-12.76
-17.45
-21.58
-25.40
-29.37
-33.94
-39.45
-45.96
-53.22
-60.54
-66.83
-70.72
-70.86
-66.33
-56.99
-43.65
-27.88
-11.61
3.46
16.24
26.32
33.78
38.83
41.68
42.49
41.52
39.21
36.14
32.92
29.95
27.41
25.22
23.29
21.60
20.24
19.41
19.23
19.61
20.25
20.66
20.34
18.95
16.37
12.70
8.26
3.40
-1.52
-6.17
-10.36
-14.11
-17.61
-21.26
-25.54
-30.80
-37.05
-43.82
-50.12
-54.68
-56.20
-53.73
-46.98
-36.40
-23.10
-8.50
5.88
18.85
29.56
37.59
42.82
45.36
45.52
43.80
40.88
37.45
34.09
31.12
28.62
26.44
24.46
22.63
21.06
19.91
19.29
19.15
19.20
19.06
18.30
16.62
13.88
10.20
5.84
1.10
-3.76
-8.62
-13.47
-18.37
-23.42
-28.67
-34.05
-39.25
-43.68
-46.44
-46.59
-43.36
-36.51
-26.51
-14.42
-1.65
10.43
20.82
28.90
34.46
37.50
38.16
36.70
33.50
29.10
24.13
19.27
15.04
11.81
9.66
8.45
7.92
7.77
7.75
7.70
7.46
6.84
5.65
3.77
1.23
-1.77
-4.96
-8.21
-11.59
-15.39
-19.98
-25.56
-32.02
-38.86
-45.25
-50.14
-52.53
-51.60
-46.94
-38.67
-27.50
-14.54
-1.17
11.34
21.91
29.84
34.82
36.87
36.34
33.84
30.15
26.02
22.03
18.49
15.43
12.78
10.44
8.43
6.85
5.80
5.31
5.21
5.13
4.62
3.32
1.02
-2.21
-6.11
-10.42
-14.94
-19.63
-24.53
-29.72
-35.27
-41.22
-47.49
-53.80
-59.57
-63.86
-65.51
-63.49
-57.22
-46.86
-33.29
-17.86
-2.06
12.84
25.83
36.29
43.78
48.14
49.41
47.97
44.47
39.81
34.97
30.80
27.84
26.25
25.78
25.97
26.29
26.34
25.91
24.96
23.56
21.78
19.63
17.11
14.19
10.87
7.18
3.21
-0.96
-5.23
-9.57
-14.01
-18.68
-23.81
-29.58
-36.11
-43.28
-50.65
-57.46
-62.65
-65.08
-63.78
-58.26
-48.66
-35.79
-20.89
-5.37
9.54
22.87
34.05
42.67
48.56
51.66
52.15
50.46
47.24
43.26
39.24
35.73
33.06
31.35
30.54
30.40
30.70
31.12
31.44
31.44
30.96
29.86
28.04
25.53
22.55
19.43
16.45
13.77
11.21
8.40
4.93
0.58
-4.54
-10.00
-15.33
-20.16
-24.38
-28.10
-31.58
-35.16
-39.15
-43.80
-49.13
-54.86
-60.28
-64.27
-65.52
-62.95
-55.94
-44.72
-30.32
-14.37
1.38
15.43
26.80
35.10
40.33
42.75
42.75
40.80
37.50
33.55
29.72
26.64
24.65
23.75
23.64
23.89
24.09
24.03
23.63
22.94
22.08
21.15
20.11
18.83
17.09
14.68
11.44
7.33
2.45
-2.94
-8.46
-13.71
-18.33
-22.20
-25.48
-28.56
-31.92
-36.01
-41.06
-47.06
-53.74
-60.44
-66.20
-69.77
-69.82
-65.38
-56.20
-42.98
-27.20
-10.73
4.75
18.05
28.58
36.23
41.12
43.48
43.68
42.22
39.68
36.69
33.72
30.98
28.58
26.47
24.69
23.35
22.58
22.42
22.77
23.38
23.86
23.82
22.93
21.01
18.12
14.52
10.57
6.62
2.85
-0.72
-4.18
-7.70
-11.34
-15.13
-19.02
-22.98
-27.02
-31.15
-35.41
-39.89
-44.75
-50.14
-56.01
-61.97
-67.15
-70.36
-70.37
-66.33
-58.05
-46.05
-31.41
-15.48
0.39
15.01
27.53
37.42
44.46
48.74
50.52
50.23
48.31
45.27
41.63
37.92
34.62
32.03
30.28
29.28
28.87
28.89
29.22
29.76
30.33
30.64
30.33
29.09
26.82
23.66
20.01
16.33
12.94
9.90
7.02
3.96
0.48
-3.47
-7.74
-12.08
-16.30
-20.32
-24.19
-27.97
-31.71
-35.50
-39.45
-43.77
-48.60
-53.84
-58.95
-62.92
-64.49
-62.51
-56.23
-45.62
-31.38
-14.76
2.70
19.43
34.04
45.53
53.31
57.27
57.69
55.19
50.67
45.03
39.12
33.54
28.65
24.58
21.33
18.83
16.93
15.47
14.25
13.06
11.77
10.39
9.02
7.77
6.66
5.48
3.87
1.47
-1.92
-6.27
-11.23
-16.32
-21.04
-25.05
-28.29
-31.02
-33.69
-36.86
-40.96
-46.17
-52.30
-58.73
-64.48
-68.32
-69.04
-65.75
-58.16
-46.73
-32.57
-17.19
-2.11
11.44
22.67
31.24
37.14
40.57
41.90
41.57
40.02
37.68
34.87
31.79
28.63
25.53
22.71
20.44
18.91
18.19
18.20
18.71
19.36
19.76
19.63
18.75
17.09
14.74
11.87
8.63
5.13
1.41
-2.43
-6.30
-10.11
-13.83
-17.53
-21.33
-25.30
-29.46
-33.84
-38.48
-43.55
-49.21
-55.34
-61.36
-66.16
-68.32
-66.62
-60.43
-50.00
-36.40
-21.11
-5.64
8.81
21.42
31.82
39.83
45.40
48.55
49.36
48.09
45.19
41.30
37.11
33.28
30.24
28.20
27.16
27.05
27.75
29.06
30.68
32.13
32.90
32.55
30.88
27.93
24.01
19.55
15.05
10.91
7.36
4.39
1.75
-1.01
-4.29
-8.23
-12.70
-17.35
-21.83
-25.99
-29.89
-33.76
-37.87
-42.43
-47.49
-52.85
-57.91
-61.68
-62.90
-60.42
-53.63
-42.78
-28.88
-13.49
1.75
15.52
26.91
35.44
40.91
43.40
43.21
40.88
37.15
32.81
28.64
25.26
23.00
21.85
21.56
21.69
21.81
21.65
21.10
20.19
19.00
17.55
15.96
14.34
12.77
11.25
9.61
7.51
4.64
0.87
-3.69
-8.64
-13.56
-18.16
-22.31
-26.14
-29.88
-33.78
-38.02
-42.66
-47.49
-52.01
-55.37
-56.58
-54.70
-49.22
-40.19
-28.29
-14.69
-0.78
12.14
23.10
31.53
37.27
40.41
41.18
39.89
36.95
33.01
28.84
25.17
22.48
20.85
19.92
19.14
18.06
16.51
14.63
12.72
11.06
9.86
9.11
8.67
8.22
7.34
5.53
2.44
-1.97
-7.38
-13.20
-18.83
-23.88
-28.23
-32.04
-35.67
-39.52
-43.90
-48.94
-54.30
-59.18
-62.38
-62.59
-58.87
-50.97
-39.35
-25.16
-9.84
5.07
18.28
28.80
36.16
40.35
41.80
41.17
39.15
36.24
32.91
29.53
26.46
24.00
22.29
21.17
20.36
19.53
18.53
17.45
16.50
15.84
15.49
15.22
14.67
13.44
11.19
7.77
3.28
-1.96
-7.49
-12.89
-17.86
-22.37
-26.48
-30.42
-34.46
-38.88
-43.89
-49.44
-55.01
-59.56
-61.68
-60.07
-54.02
-43.73
-30.27
-15.19
-0.09
13.75
25.51
34.70
41.06
44.54
45.34
43.91
40.94
37.17
33.34
29.98
27.41
25.69
24.66
24.04
23.53
22.98
22.38
21.85
21.42
20.95
20.15
18.67
16.34
13.19
9.47
5.49
1.52
-2.36
-6.19
-10.09
-14.16
-18.45
-22.96
-27.66
-32.56
-37.69
-42.94
-47.99
-52.12
-54.37
-53.71
-49.51
-41.67
-30.76
-17.79
-3.94
9.68
22.10
32.45
39.99
44.25
45.20
43.30
39.46
34.76
30.07
25.97
22.65
20.08
18.20
16.95
16.27
16.04
16.06
16.07
15.83
15.15
13.95
12.24
10.07
7.47
4.45
0.99
-2.88
-7.05
-11.34
-15.58
-19.70
-23.83
-28.17
-32.92
-38.03
-43.08
-47.29
-49.68
-49.35
-45.78
-38.94
-29.33
-17.88
-5.68
6.22
16.98
26.04
33.01
37.65
39.82
39.57
37.21
33.34
28.77
24.27
20.34
17.12
14.60
12.63
11.22
10.44
10.34
10.74
11.18
11.05
9.84
7.39
3.90
-0.15
-4.23
-7.97
-11.28
-14.35
-17.51
-21.16
-25.55
-30.83
-36.82
-43.07
-48.76
-52.79
-53.96
-51.33
-44.56
-34.16
-21.34
-7.70
5.26
16.50
25.50
32.17
36.53
38.68
38.77
37.09
34.16
30.57
26.82
23.20
19.80
16.68
13.97
11.91
10.66
10.23
10.39
10.74
10.88
10.45
9.18
6.90
3.56
-0.76
-5.77
-11.05
-16.16
-20.81
-24.96
-28.87
-32.99
-37.79
-43.45
-49.66
-55.49
-59.54
-60.30
-56.71
-48.50
-36.46
-22.14
-7.37
6.33
18.10
27.70
35.28
40.95
44.69
46.32
45.79
43.37
39.69
35.59
31.86
29.01
27.15
26.10
25.52
25.10
24.64
24.02
23.18
22.04
20.52
18.55
16.15
13.36
10.24
6.83
3.05
-1.19
-5.94
-11.11
-16.49
-21.82
-26.91
-31.74
-36.49
-41.44
-46.87
-52.81
-58.92
-64.44
-68.24
-69.11
-66.13
-58.96
-47.96
-34.11
-18.74
-3.13
11.56
24.51
35.06
42.79
47.55
49.53
49.22
47.39
44.82
42.23
40.12
38.70
37.96
37.70
37.66
37.54
37.22
36.64
35.86
34.95
33.90
32.71
31.37
29.81
27.94
25.64
22.72
19.06
14.71
9.90
5.03
0.50
-3.44
-6.68
-9.34
-11.71
-14.12
-16.87
-20.18
-24.05
-28.34
-32.79
-37.24
-41.67
-46.29
-51.36
-57.01
-63.11
-69.12
-74.22
-77.39
-77.67
-74.30
-66.96
-55.87
-41.83
-26.06
-9.90
5.41
18.93
29.98
38.22
43.48
45.89
45.88
44.10
41.36
38.45
36.00
34.51
34.26
35.23
37.17
39.50
41.51
42.62
42.50
41.29
39.40
37.31
35.25
33.20
30.95
28.31
25.26
21.94
18.55
15.24
12.02
8.78
5.41
1.83
-1.96
-5.80
-9.56
-13.08
-16.34
-19.35
-22.25
-25.19
-28.33
-31.84
-35.89
-40.65
-46.12
-52.05
-57.84
-62.55
-65.14
-64.69
-60.68
-53.09
-42.39
-29.50
-15.53
-1.66
11.10
22.02
30.71
36.98
40.82
42.28
41.53
38.94
35.16
31.02
27.29
24.51
22.81
22.10
22.16
22.86
24.08
25.66
27.23
28.26
28.24
26.86
24.16
20.51
16.38
12.33
8.78
5.91
3.68
1.81
-0.13
-2.57
-5.78
-9.78
-14.38
-19.25
-24.06
-28.47
-32.29
-35.51
-38.39
-41.43
-45.28
-50.36
-56.57
-63.12
-68.63
-71.56
-70.65
-65.29
-55.66
-42.61
-27.48
-11.73
3.25
16.37
26.88
34.48
39.24
41.46
41.64
40.38
38.30
35.93
33.70
31.83
30.36
29.22
28.30
27.57
27.01
26.68
26.63
26.90
27.48
28.24
28.81
28.71
27.49
24.91
21.14
16.66
12.06
7.76
3.91
0.43
-2.82
-5.94
-8.92
-11.78
-14.59
-17.48
-20.62
-24.13
-28.10
-32.57
-37.67
-43.43
-49.70
-55.91
-61.12
-64.15
-63.89
-59.70
-51.58
-40.21
-26.76
-12.57
1.03
13.10
23.03
30.62
35.86
38.97
40.21
39.89
38.40
36.14
33.54
31.03
28.96
27.58
27.00
27.13
27.72
28.44
28.97
29.09
28.72
27.81
26.35
24.30
21.66
18.59
15.36
12.31
9.64
7.34
5.08
2.53
-0.63
-4.45
-8.76
-13.24
-17.62
-21.67
-25.30
-28.52
-31.50
-34.60
-38.21
-42.61
-47.63
-52.53
-56.05
-56.83
-53.86
-46.84
-36.36
-23.65
-10.23
2.52
13.59
22.44
28.88
32.98
34.91
34.92
33.32
30.60
27.29
23.99
21.17
19.12
17.85
17.24
17.07
17.18
17.48
17.92
18.40
18.74
18.70
18.04
16.64
14.51
11.82
8.78
5.59
2.33
-1.00
-4.45
-8.08
-11.89
-15.85
-19.87
-23.89
-27.83
-31.67
-35.42
-39.21
-43.18
-47.53
-52.26
-57.12
-61.46
-64.31
-64.56
-61.29
-54.10
-43.23
-29.67
-14.80
-0.13
13.09
24.05
32.37
37.93
40.80
41.18
39.46
36.28
32.44
28.77
25.88
24.03
23.16
23.08
23.54
24.30
25.14
25.81
26.09
25.87
25.13
23.96
22.42
20.52
18.19
15.41
12.26
8.93
5.65
2.54
-0.42
-3.44
-6.70
-10.33
-14.32
-18.47
-22.57
-26.51
-30.41
-34.69
-39.84
-46.07
-52.98
-59.49
-63.94
-64.73
-60.84
-52.20
-39.72
-24.95
-9.63
4.72
16.98
26.53
33.19
37.08
38.61
38.32
36.77
34.48
31.89
29.33
27.08
25.20
23.70
22.50
21.61
21.06
21.02
21.54
22.51
23.57
24.28
24.23
23.26
21.31
18.48
14.89
10.76
6.36
2.09
-1.72
-4.94
-7.67
-10.22
-12.90
-15.88
-19.31
-23.29
-27.97
-33.51
-39.85
-46.56
-52.76
-57.33
-59.13
-57.28
-51.50
-42.06
-29.89
-16.39
-3.07
8.78
18.37
25.54
30.54
33.77
35.54
35.97
35.09
32.96
29.75
25.76
21.38
17.13
13.53
11.09
10.09
10.50
11.90
13.67
15.18
16.01
15.95
14.93
13.01
10.28
6.86
3.04
-0.91
-4.76
-8.39
-11.87
-15.30
-18.81
-22.56
-26.71
-31.37
-36.64
-42.42
-48.48
-54.37
-59.50
-63.08
-64.27
-62.26
-56.51
-47.06
-34.61
-20.40
-5.86
7.72
19.49
29.04
36.22
41.00
43.39
43.52
41.75
38.63
34.80
30.93
27.44
24.59
22.48
21.11
20.46
20.48
21.05
21.96
22.88
23.37
23.08
21.79
19.54
16.58
13.28
9.90
6.56
3.19
-0.36
-4.19
-8.27
-12.49
-16.73
-20.92
-25.12
-29.46
-34.11
-39.22
-44.78
-50.48
-55.62
-59.15
-59.86
-56.79
-49.59
-38.66
-25.07
-10.29
4.27
17.47
28.52
36.99
42.64
45.48
45.71
43.75
40.20
35.78
31.22
27.11
23.91
21.81
20.79
20.66
21.11
21.81
22.50
22.92
22.92
22.44
21.44
19.99
18.15
15.89
13.16
9.85
5.94
1.55
-3.05
-7.61
-11.99
-16.23
-20.52
-25.06
-29.95
-35.13
-40.45
-45.59
-50.10
-53.32
-54.44
-52.62
-47.31
-38.48
-26.72
-13.16
0.79
13.79
24.77
33.10
38.53
41.17
41.30
39.27
35.52
30.54
24.98
19.56
15.06
12.05
10.74
10.90
11.94
13.20
14.11
14.36
13.89
12.77
11.10
8.91
6.24
3.07
-0.53
-4.45
-8.50
-12.50
-16.34
-20.13
-24.11
-28.60
-33.84
-39.89
-46.52
-53.28
-59.43
-64.06
-66.14
-64.71
-59.10
-49.28
-35.98
-20.59
-4.81
9.78
22.12
31.73
38.64
43.09
45.30
45.46
43.73
40.33
35.68
30.44
25.45
21.52
19.23
18.74
19.71
21.46
23.24
24.43
24.74
24.09
22.52
20.16
17.14
13.62
9.77
5.75
1.65
-2.48
-6.60
-10.58
-14.32
-17.86
-21.51
-25.73
-30.92
-37.20
-44.22
-51.24
-57.38
-61.71
-63.39
-61.72
-56.25
-47.01
-34.62
-20.25
-5.26
9.06
21.83
32.59
41.07
47.06
50.41
51.10
49.41
45.85
41.08
35.82
30.75
26.48
23.58
22.39
22.88
24.63
26.92
28.97
30.20
30.23
28.91
26.30
22.64
18.32
13.95
10.07
6.93
4.42
2.13
-0.45
-3.60
-7.45
-11.92
-16.85
-22.10
-27.54
-33.00
-38.35
-43.52
-48.46
-52.98
-56.58
-58.41
-57.57
-53.36
-45.59
-34.72
-21.72
-7.75
6.05
18.69
29.39
37.50
42.59
44.51
43.37
39.64
34.13
27.87
21.90
17.20
14.26
13.10
13.31
14.23
15.25
16.01
16.25
15.87
14.91
13.41
11.50
9.36
7.03
4.45
1.45
-2.12
-6.23
-10.68
-15.31
-20.09
-25.18
-30.80
-37.05
-43.71
-50.25
-55.95
-59.99
-61.54
-59.88
-54.53
-45.52
-33.52
-19.72
-5.53
7.77
19.38
28.93
36.27
41.36
44.11
44.52
42.83
39.49
35.07
30.20
25.42
21.18
17.87
15.76
14.88
15.02
15.75
16.57
17.06
16.87
15.79
13.70
10.57
6.52
1.87
-2.92
-7.39
-11.21
-14.31
-16.92
-19.50
-22.73
-27.20
-33.24
-40.72
-48.99
-56.93
-63.25
-66.70
-66.40
-61.87
-53.26
-41.19
-26.86
-11.77
2.59
15.07
25.14
32.90
38.73
42.97
45.70
46.73
45.89
43.33
39.51
35.12
30.84
27.18
24.39
22.56
21.68
21.65
22.26
23.18
24.03
24.41
23.93
22.39
19.74
16.14
11.90
7.41
3.04
-1.06
-4.88
-8.53
-12.16
-15.83
-19.63
-23.65
-28.07
-33.13
-38.94
-45.36
-51.96
-57.98
-62.44
-64.34
-62.80
-57.28
-47.85
-35.27
-20.79
-5.95
7.89
19.81
29.43
36.71
41.77
44.68
45.46
44.24
41.28
37.15
32.58
28.33
25.06
23.15
22.60
23.18
24.40
25.73
26.75
27.20
26.95
25.96
24.23
21.76
18.59
14.86
10.78
6.60
2.51
-1.39
-5.10
-8.70
-12.29
-15.93
-19.63
-23.39
-27.24
-31.30
-35.77
-40.81
-46.37
-52.01
-56.77
-59.39
-58.67
-53.85
-44.99
-32.89
-18.93
-4.57
8.91
20.64
30.09
37.01
41.30
43.01
42.30
39.55
35.38
30.53
25.83
22.00
19.47
18.37
18.48
19.37
20.53
21.51
21.99
21.78
20.83
19.16
16.91
14.23
11.24
8.02
4.58
0.89
-3.05
-7.24
-11.60
-16.08
-20.61
-25.11
-29.51
-33.81
-38.11
-42.66
-47.80
-53.65
-59.92
-65.67
-69.49
-69.88
-65.77
-56.96
-44.19
-28.91
-12.75
2.83
16.82
28.57
37.72
44.03
47.35
47.82
45.91
42.42
38.33
34.54
31.63
29.81
28.94
28.72
28.90
29.29
29.77
30.22
30.39
29.99
28.75
26.57
23.63
20.26
16.81
13.51
10.41
7.42
4.42
1.38
-1.76
-5.02
-8.49
-12.29
-16.50
-21.10
-25.96
-30.98
-36.16
-41.65
-47.64
-54.14
-60.70
-66.28
-69.50
-68.93
-63.69
-53.81
-40.25
-24.68
-8.88
5.68
18.12
28.13
35.71
40.94
43.90
44.74
43.78
41.56
38.79
36.12
34.03
32.69
31.98
31.68
31.54
31.42
31.29
31.19
31.13
31.04
30.71
29.84
28.21
25.69
22.39
18.57
14.60
10.79
7.27
4.02
0.82
-2.53
-6.17
-10.06
-14.03
-17.84
-21.36
-24.60
-27.70
-30.88
-34.40
-38.43
-43.08
-48.30
-53.85
-59.06
-62.95
-64.32
-62.16
-55.96
-45.97
-33.09
-18.67
-4.09
9.49
21.22
30.57
37.20
40.99
42.05
40.76
37.79
33.92
29.90
26.36
23.73
22.25
21.96
22.66
24.02
25.59
26.89
27.52
27.21
25.82
23.38
20.03
16.11
12.04
8.22
4.92
2.15
-0.34
-2.95
-6.05
-9.84
-14.25
-19.01
-23.77
-28.23
-32.28
-36.07
-39.92
-44.27
-49.39
-55.21
-61.19
-66.27
-69.13
-68.54
-63.71
-54.61
-41.92
-26.92
-11.13
4.04
17.47
28.46
36.66
42.08
44.89
45.49
44.43
42.31
39.73
37.18
34.97
33.21
31.90
30.97
30.36
29.98
29.79
29.72
29.62
29.35
28.70
27.46
25.51
22.85
19.62
16.04
12.38
8.76
5.23
1.73
-1.86
-5.62
-9.52
-13.47
-17.34
-21.00
-24.47
-27.85
-31.42
-35.55
-40.52
-46.39
-52.84
-59.13
-64.25
-67.11
-66.81
-62.80
-55.04
-43.98
-30.53
-15.88
-1.29
12.16
23.65
32.72
39.19
43.07
44.57
44.08
42.15
39.44
36.57
33.99
31.92
30.39
29.37
28.87
28.98
29.69
30.85
32.10
32.93
32.84
31.50
28.85
25.10
20.68
16.13
12.02
8.78
6.51
4.98
3.63
1.80
-1.00
-4.93
-9.72
-14.87
-19.87
-24.46
-28.62
-32.58
-36.66
-41.10
-45.95
-50.97
-55.59
-58.93
-59.95
-57.75
-51.81
-42.28
-29.94
-16.00
-1.86
11.21
22.29
30.80
36.50
39.39
39.71
37.91
34.60
30.51
26.37
22.78
20.11
18.46
17.76
17.76
18.22
18.85
19.40
19.63
19.37
18.54
17.21
15.58
13.83
12.05
10.15
7.90
5.05
1.49
-2.70
-7.27
-11.86
-16.21
-20.13
-23.60
-26.71
-29.68
-32.79
-36.41
-40.88
-46.37
-52.65
-58.98
-64.12
-66.60
-65.18
-59.26
-49.15
-35.97
-21.25
-6.57
6.87
18.34
27.46
34.10
38.22
39.91
39.50
37.55
34.76
31.80
29.16
27.04
25.45
24.32
23.60
23.30
23.44
23.99
24.80
25.61
26.09
25.91
24.84
22.80
19.96
16.56
12.96
9.39
5.98
2.71
-0.54
-3.87
-7.33
-10.90
-14.49
-18.06
-21.62
-25.28
-29.20
-33.55
-38.41
-43.84
-49.67
-55.60
-61.10
-65.43
-67.68
-66.99
-62.69
-54.68
-43.42
-29.93
-15.49
-1.37
11.51
22.58
31.55
38.26
42.59
44.52
44.21
42.10
38.90
35.40
32.30
30.08
28.94
28.81
29.35
30.17
30.87
31.23
31.21
30.88
30.31
29.43
28.09
26.10
23.45
20.40
17.32
14.54
12.11
9.78
7.11
3.71
-0.54
-5.39
-10.41
-15.13
-19.18
-22.46
-25.11
-27.47
-29.96
-33.02
-36.95
-41.89
-47.67
-53.76
-59.27
-63.06
-63.94
-61.03
-54.01
-43.30
-30.02
-15.62
-1.56
11.03
21.43
29.36
34.79
37.82
38.73
37.89
35.81
33.06
30.14
27.39
24.99
22.99
21.40
20.28
19.73
19.76
20.26
20.94
21.42
21.32
20.41
18.64
16.10
12.96
9.37
5.53
1.63
-2.15
-5.60
-8.68
-11.45
-14.15
-17.08
-20.48
-24.51
-29.22
-34.60
-40.60
-47.12
-53.86
-60.22
-65.31
-68.07
-67.55
-63.19
-54.97
-43.52
-29.94
-15.60
-1.81
10.45
20.58
28.38
33.97
37.56
39.38
39.68
38.73
36.85
34.42
31.86
29.51
27.65
26.42
25.87
25.90
26.30
26.76
27.00
26.72
25.78
24.17
21.94
19.24
16.23
13.09
10.02
7.14
4.47
1.84
-1.03
-4.43
-8.47
-13.03
-17.80
-22.49
-26.96
-31.30
-35.72
-40.46
-45.53
-50.70
-55.39
-58.82
-60.07
-58.32
-53.11
-44.47
-33.00
-19.73
-5.83
7.64
19.84
30.14
38.08
43.30
45.70
45.49
43.28
39.89
36.19
32.78
30.06
28.15
27.08
26.75
27.02
27.64
28.32
28.72
28.57
27.67
25.95
23.50
20.62
17.67
14.95
12.53
10.19
7.50
4.11
-0.08
-4.75
-9.39
-13.55
-17.08
-20.15
-23.15
-26.47
-30.36
-34.93
-40.11
-45.60
-50.79
-54.69
-56.18
-54.18
-48.18
-38.41
-25.88
-12.06
1.49
13.54
23.37
30.69
35.52
38.00
38.35
36.85
33.98
30.37
26.69
23.55
21.27
19.92
19.30
19.13
19.18
19.26
19.24
18.99
18.35
17.20
15.46
13.14
10.34
7.17
3.73
0.12
-3.58
-7.27
-10.89
-14.41
-17.93
-21.54
-25.37
-29.56
-34.18
-39.30
-44.95
-50.97
-56.93
-62.04
-65.20
-65.30
-61.46
-53.40
-41.54
-27.04
-11.47
3.48
16.39
26.40
33.26
37.22
38.87
38.80
37.60
35.76
33.72
31.84
30.35
29.27
28.42
27.55
26.54
25.45
24.55
24.03
23.88
23.86
23.59
22.76
21.29
19.24
16.75
13.91
10.67
6.94
2.71
-1.92
-6.75
-11.42
-15.67
-19.38
-22.65
-25.80
-29.24
-33.33
-38.25
-43.87
-49.71
-54.90
-58.36
-58.95
-55.77
-48.55
-37.76
-24.58
-10.60
2.67
14.18
23.43
30.40
35.27
38.24
39.52
39.36
38.14
36.32
34.31
32.35
30.50
28.69
26.87
25.11
23.55
22.39
21.69
21.39
21.24
20.98
20.35
19.15
17.30
14.80
11.67
7.99
3.91
-0.36
-4.49
-8.20
-11.37
-14.15
-16.89
-20.03
-23.91
-28.57
-33.82
-39.20
-44.16
-48.11
-50.39
-50.34
-47.44
-41.43
-32.54
-21.54
-9.54
2.28
12.92
21.74
28.45
32.95
35.27
35.55
34.07
31.24
27.67
23.99
20.69
18.04
16.06
14.61
13.48
12.60
11.98
11.71
11.84
12.24
12.55
12.31
11.05
8.54
4.84
0.35
-4.41
-8.94
-13.00
-16.61
-19.97
-23.36
-26.95
-30.88
-35.21
-40.01
-45.30
-50.89
-56.20
-60.24
-61.79
-59.75
-53.68
-43.94
-31.66
-18.32
-5.33
6.33
16.15
24.00
29.90
33.91
36.18
36.92
36.47
35.17
33.34
31.21
28.98
26.84
25.02
23.68
22.92
22.69
22.91
23.38
23.88
24.12
23.77
22.55
20.31
17.12
13.25
9.09
4.99
1.15
-2.34
-5.52
-8.46
-11.34
-14.31
-17.58
-21.40
-25.93
-31.24
-37.21
-43.46
-49.36
-53.95
-56.19
-55.19
-50.50
-42.34
-31.57
-19.43
-7.13
4.41
14.62
23.28
30.23
35.29
38.32
39.28
38.34
35.93
32.64
29.07
25.72
22.94
20.97
19.89
19.68
20.19
21.09
21.99
22.46
22.18
21.01
18.99
16.28
13.12
9.71
6.18
2.59
-1.04
-4.71
-8.35
-11.91
-15.36
-18.74
-22.24
-26.13
-30.67
-35.93
-41.67
-47.23
-51.59
-53.60
-52.36
-47.47
-39.21
-28.44
-16.39
-4.27
6.94
16.57
24.26
29.85
33.30
34.68
34.22
32.31
29.50
26.33
23.28
20.64
18.55
17.03
16.03
15.50
15.34
15.42
15.52
15.40
14.85
13.73
12.00
9.69
6.86
3.58
-0.09
-4.02
-8.00
-11.77
-15.16
-18.17
-21.04
-24.14
-27.92
-32.66
-38.41
-44.88
-51.48
-57.38
-61.62
-63.24
-61.55
-56.29
-47.66
-36.43
-23.68
-10.55
1.96
13.12
22.49
29.82
35.06
38.29
39.73
39.70
38.61
36.86
34.79
32.67
30.67
28.92
27.46
26.32
25.50
24.97
24.69
24.47
24.09
23.25
21.75
19.56
16.84
13.88
10.93
8.06
5.15
2.03
-1.42
-5.16
-9.06
-12.94
-16.78
-20.72
-24.99
-29.80
-35.15
-40.87
-46.41
-51.03
-53.92
-54.26
-51.56
-45.67
-36.93
-26.07
-14.13
-2.16
8.87
18.29
25.74
31.14
34.59
36.34
36.58
35.58
33.60
30.98
28.12
25.40
23.12
21.40
20.21
19.35
18.67
18.05
17.46
16.89
16.25
15.41
14.20
12.49
10.25
7.51
4.34
0.78
-3.12
-7.26
-11.48
-15.61
-19.53
-23.30
-27.14
-31.40
-36.29
-41.67
-46.96
-51.18
-53.21
-52.19
-47.74
-40.10
-30.03
-18.59
-6.84
4.29
14.12
22.15
28.15
32.10
34.21
34.84
34.40
33.19
31.38
29.09
26.40
23.51
20.69
18.28
16.57
15.72
15.70
16.21
16.80
16.93
16.20
14.44
11.74
8.34
4.51
0.49
-3.54
-7.41
-11.00
-14.29
-17.43
-20.74
-24.55
-29.03
-34.15
-39.68
-45.34
-50.84
-55.71
-59.28
-60.65
-58.94
-53.71
-45.16
-34.12
-21.79
-9.27
2.63
13.44
22.88
30.79
36.95
41.23
43.62
44.30
43.59
41.87
39.52
36.84
34.12
31.60
29.49
27.99
27.23
27.17
27.61
28.13
28.29
27.73
26.35
24.34
21.97
19.49
16.93
14.18
11.03
7.36
3.23
-1.15
-5.53
-9.69
-13.54
-17.11
-20.51
-23.92
-27.56
-31.62
-36.24
-41.35
-46.60
-51.32
-54.59
-55.44
-53.13
-47.41
-38.58
-27.49
-15.28
-3.11
8.03
17.45
24.81
30.02
33.16
34.37
33.93
32.17
29.55
26.59
23.82
21.71
20.53
20.28
20.69
21.34
21.81
21.80
21.25
20.22
18.86
17.29
15.57
13.73
11.75
9.58
7.16
4.40
1.24
-2.29
-6.06
-9.89
-13.59
-17.11
-20.57
-24.18
-28.16
-32.66
-37.59
-42.63
-47.19
-50.47
-51.60
-49.88
-45.02
-37.23
-27.22
-15.94
-4.41
6.49
16.07
23.76
29.19
32.14
32.75
31.43
28.87
25.79
22.80
20.27
18.35
17.04
16.23
15.79
15.56
15.36
15.08
14.60
13.85
12.76
11.21
9.17
6.65
3.72
0.51
-2.86
-6.32
-9.83
-13.39
-17.03
-20.75
-24.63
-28.75
-33.15
-37.85
-42.78
-47.66
-52.05
-55.28
-56.57
-55.17
-50.62
-42.90
-32.56
-20.55
-7.97
4.15
15.03
24.08
30.97
35.47
37.61
37.70
36.33
34.21
32.01
30.13
28.76
27.85
27.26
26.85
26.50
26.08
25.46
24.57
23.37
21.92
20.30
18.55
16.67
14.58
12.17
9.44
6.37
3.04
-0.45
-4.00
-7.58
-11.17
-14.82
-18.70
-22.96
-27.74
-33.03
-38.55
-43.71
-47.62
-49.26
-47.85
-42.99
-34.86
-24.27
-12.37
-0.41
10.59
19.90
27.15
32.16
34.89
35.39
33.92
30.93
27.10
23.18
19.80
17.32
15.72
14.77
14.15
13.63
13.17
12.80
12.59
12.49
12.35
11.93
11.02
9.46
7.24
4.43
1.27
-2.07
-5.37
-8.57
-11.73
-14.96
-18.47
-22.40
-26.92
-32.11
-37.85
-43.66
-48.60
-51.46
-51.03
-46.59
-38.29
-27.07
-14.43
-1.90
9.33
18.43
24.99
28.88
30.23
29.49
27.39
24.78
22.36
20.49
19.14
18.11
17.18
16.14
14.87
13.32
11.50
9.60
7.87
6.58
5.77
5.22
4.43
2.94
0.56
-2.60
-6.16
-9.75
-13.18
-16.43
-19.68
-23.13
-27.01
-31.46
-36.52
-41.95
-47.15
-51.26
-53.25
-52.28
-47.95
-40.42
-30.40
-18.85
-6.83
4.78
15.25
24.06
30.87
35.46
37.87
38.32
37.23
35.15
32.62
30.07
27.84
26.11
24.91
24.20
23.79
23.45
22.94
22.12
20.98
19.58
18.01
16.28
14.31
11.96
9.18
6.02
2.59
-0.93
-4.48
-8.06
-11.75
-15.63
-19.77
-24.23
-28.99
-33.96
-38.77
-42.80
-45.20
-45.17
-42.21
-36.30
-27.93
-17.91
-7.13
3.59
13.55
22.17
28.94
33.49
35.65
35.59
33.81
31.02
27.92
25.01
22.58
20.64
19.12
17.96
17.14
16.65
16.42
16.20
15.67
14.55
12.77
10.44
7.82
5.15
2.52
-0.13
-2.90
-5.86
-9.00
-12.36
-15.98
-20.02
-24.59
-29.66
-34.91
-39.76
-43.43
-45.16
-44.34
-40.71
-34.39
-25.93
-16.15
-6.01
3.63
12.12
19.10
24.42
28.07
30.07
30.51
29.54
27.45
24.59
21.39
18.22
15.35
12.97
11.10
9.74
8.79
8.16
7.68
7.17
6.44
5.26
3.46
0.93
-2.25
-5.85
-9.56
-13.11
-16.41
-19.63
-23.11
-27.24
-32.26
-38.15
-44.48
-50.44
-54.98
-57.03
-55.77
-50.89
-42.62
-31.73
-19.25
-6.32
6.05
17.00
25.91
32.41
36.39
38.02
37.76
36.16
33.83
31.27
28.87
26.86
25.34
24.21
23.24
22.19
20.93
19.49
18.08
16.92
16.03
15.25
14.22
12.64
10.32
7.28
3.65
-0.40
-4.71
-9.15
-13.59
-17.95
-22.25
-26.65
-31.37
-36.47
-41.62
-46.09
-48.82
-48.76
-45.27
-38.33
-28.57
-17.04
-4.93
6.72
17.18
25.96
32.83
37.64
40.33
40.98
39.84
37.39
34.25
31.05
28.31
26.28
24.93
24.07
23.43
22.81
22.14
21.44
20.76
20.01
18.99
17.43
15.08
11.93
8.22
4.33
0.62
-2.82
-6.22
-9.91
-14.15
-18.97
-24.13
-29.25
-34.03
-38.17
-41.43
-43.42
-43.70
-41.86
-37.74
-31.45
-23.41
-14.20
-4.42
5.30
14.34
22.11
28.08
