1629024456.00
64.000000
-0.00
-0.00
-0.00
-0.00
-0.00
-0.00
-0.00
-0.00
-0.00
-0.00
0.00
0.01
0.01
-0.00
-0.03
-0.05
-0.05
0.00
0.13
0.36
0.66
1.01
1.37
1.72
2.06
2.40
2.79
3.24
3.80
4.42
5.06
5.66
6.20
6.68
7.15
7.68
8.31
9.14
10.09
11.04
11.88
12.56
13.14
13.76
14.65
15.96
17.91
20.32
22.90
25.38
27.58
29.57
31.68
34.32
37.81
42.54
48.15
54.10
59.83
64.97
69.58
74.14
79.34
85.71
93.76
103.00
112.62
121.73
129.77
136.75
143.30
150.75
157.77
166.64
177.95
191.79
206.97
220.57
228.25
225.36
208.53
176.87
132.76
80.05
23.07
-34.94
-92.44
-149.16
-205.23
-260.37
-313.74
-363.87
-409.83
-450.91
-486.50
-515.74
-537.23
-549.22
-549.96
-538.37
-514.21
-478.67
-433.88
-382.45
-327.02
-269.84
-212.63
-156.66
-102.95
-52.37
-5.90
35.58
71.43
101.35
125.50
144.38
158.69
169.15
176.37
180.75
182.57
182.07
179.51
175.23
169.65
163.18
156.15
148.81
141.30
133.69
126.02
118.33
110.69
103.16
95.80
88.68
81.83
75.25
68.95
62.95
57.25
51.86
46.78
42.03
37.59
33.45
29.61
26.07
22.81
19.83
17.11
14.67
12.48
10.54
8.83
7.35
6.07
4.97
4.05
3.27
2.62
2.09
1.65
1.30
1.01
0.79
0.61
0.48
0.37
0.29
0.24
0.20
0.18
0.17
0.18
0.19
0.21
0.24
0.27
0.31
0.35
0.39
0.44
0.48
0.53
0.58
0.63
0.68
0.74
0.81
0.87
0.95
1.03
1.12
1.22
1.34
1.47
1.61
1.77
1.95
2.15
2.37
2.62
2.89
3.19
3.52
3.88
4.27
4.70
5.16
5.67
6.20
6.78
7.40
8.07
8.78
9.53
10.32
11.17
12.05
12.99
13.97
15.02
16.13
17.30
18.53
19.80
21.06
22.28
23.36
24.21
24.70
24.72
24.16
22.93
20.98
18.33
15.02
11.15
6.89
2.43
-2.01
-6.23
-10.03
-13.24
-15.78
-17.58
-18.63
-18.98
-18.71
-17.93
-16.75
-15.27
-13.60
-11.81
-9.97
-8.13
-6.33
-4.59
-2.94
-1.35
0.24
1.87
3.56
5.34
7.21
9.22
11.27
13.35
15.47
17.68
20.03
22.54
25.20
28.02
31.07
34.14
37.18
40.28
43.56
47.11
50.96
55.05
59.29
63.72
67.91
71.83
75.62
79.53
83.74
88.22
92.75
97.01
100.79
103.39
104.66
104.75
103.90
102.08
98.71
92.45
81.04
66.61
49.52
30.33
9.88
-10.89
-31.26
-50.92
-70.03
-89.04
-108.53
-129.85
-153.99
-181.26
-210.76
-240.08
-265.51
-282.90
-289.08
-283.04
-266.84
-244.27
-219.51
-195.70
-174.26
-155.02
-137.08
-119.62
-102.24
-85.15
-68.41
-51.72
-34.70
-17.24
0.21
16.64
30.78
41.58
48.43
51.48
51.44
49.34
46.20
42.89
39.94
37.56
35.64
33.87
31.97
29.87
27.79
26.11
25.12
24.87
25.05
25.12
24.60
23.22
21.05
18.38
15.49
12.60
9.78
6.99
4.22
1.50
-1.15
-3.67
-6.07
-8.40
-10.70
-13.02
-15.43
-17.96
-20.69
-23.64
-26.71
-29.59
-31.68
-32.10
-29.94
-24.48
-15.53
-3.58
10.28
24.60
38.00
49.44
58.38
64.76
68.74
70.57
70.49
68.69
65.38
60.85
55.46
49.66
43.95
38.70
34.13
30.26
26.93
23.90
21.02
18.26
15.68
13.29
11.01
8.70
6.17
3.35
0.35
-2.62
-5.32
-7.62
-9.58
-11.44
-13.53
-16.07
-19.08
-22.29
-25.20
-27.32
-28.36
-28.47
-28.13
-28.12
-29.12
-31.57
-35.43
-40.20
-44.98
-48.49
-49.32
-46.24
-38.62
-26.72
-11.79
4.27
19.46
32.26
42.01
48.79
53.14
55.62
56.54
55.97
53.93
50.55
46.18
41.27
36.26
31.47
27.06
23.10
19.67
16.93
15.07
14.28
14.54
15.65
17.10
18.29
18.61
17.63
15.24
11.70
7.51
3.33
-0.22
-2.74
-4.16
-4.83
-5.38
-6.57
-9.05
-13.08
-18.48
-24.67
-30.89
-36.39
-40.70
-43.74
-45.74
-47.26
-48.89
-51.09
-53.98
-57.16
-59.73
-60.38
-57.75
-50.78
-39.23
-23.80
-6.11
11.75
27.78
40.62
49.71
55.30
58.01
58.54
57.40
54.94
51.45
47.27
42.84
38.59
34.85
31.80
29.46
27.83
26.93
26.77
27.30
28.26
29.16
29.25
27.77
24.21
18.52
11.15
2.96
-5.10
-12.25
-18.02
-22.31
-25.21
-26.96
-27.83
-28.11
-28.18
-28.46
-29.32
-30.93
-33.16
-35.57
-37.65
-38.99
-39.60
-39.86
-40.45
-42.07
-45.10
-49.37
-54.17
-58.26
-60.14
-58.33
-51.79
-40.19
-24.26
-5.65
13.43
30.83
44.99
55.31
61.91
65.38
66.33
65.15
62.11
57.54
51.91
45.83
39.96
34.77
30.51
27.21
24.76
23.00
21.79
21.02
20.56
20.34
20.19
19.87
19.08
17.54
15.11
11.90
8.28
4.68
1.43
-1.38
-3.92
-6.41
-9.02
-11.70
-14.23
-16.38
-18.08
-19.46
-20.84
-22.50
-24.58
-27.01
-29.55
-31.91
-33.91
-35.53
-36.90
-38.28
-39.96
-42.29
-45.42
-49.31
-53.37
-56.53
-57.22
-53.88
-45.49
-32.01
-14.63
4.56
23.13
39.10
51.28
59.42
63.94
65.47
64.58
61.65
56.98
50.96
44.23
37.58
31.77
27.34
24.36
22.57
21.55
20.91
20.49
20.29
20.28
20.27
19.90
18.76
16.58
13.42
9.60
5.64
2.04
-0.89
-3.07
-4.67
-6.04
-7.62
-9.67
-12.25
-15.08
-17.70
-19.62
-20.63
-20.87
-20.84
-21.12
-22.12
-23.96
-26.37
-28.92
-31.20
-33.02
-34.44
-35.78
-37.49
-39.90
-43.11
-46.83
-50.33
-52.57
-52.38
-48.78
-41.22
-29.87
-15.61
0.14
15.85
30.20
42.38
52.04
59.18
63.75
65.61
64.56
60.65
54.37
46.73
38.99
32.24
27.00
23.26
20.57
18.44
16.60
15.05
13.96
13.40
13.27
13.25
12.97
12.12
10.65
8.64
6.34
4.02
1.80
-0.29
-2.34
-4.49
-6.82
-9.28
-11.71
-13.86
-15.53
-16.68
-17.44
-18.08
-18.92
-20.25
-22.15
-24.44
-26.79
-28.73
-29.93
-30.27
-29.95
-29.35
-28.99
-29.37
-30.85
-33.57
-37.27
-41.25
-44.27
-44.82
-41.47
-33.44
-20.98
-5.42
11.19
26.69
39.40
48.47
53.84
55.97
55.47
52.93
48.83
43.65
37.89
32.10
26.80
22.28
18.68
15.89
13.76
12.17
11.09
10.50
10.37
10.52
10.68
10.47
9.58
7.90
5.51
2.69
-0.28
-3.15
-5.79
-8.18
-10.33
-12.23
-13.86
-15.19
-16.23
-17.04
-17.76
-18.55
-19.53
-20.72
-22.02
-23.23
-24.13
-24.61
-24.73
-24.74
-25.08
-26.21
-28.44
-31.77
-35.73
-39.35
-41.36
-40.47
-35.73
-26.95
-14.79
-0.67
13.63
26.40
36.42
43.14
46.64
47.40
46.03
43.13
39.21
34.66
29.88
25.26
21.16
17.79
15.20
13.21
11.60
10.22
9.08
8.30
7.98
8.05
8.19
7.92
6.79
4.57
1.35
-2.51
-6.45
-9.96
-12.72
-14.70
-16.15
-17.45
-18.97
-20.88
-23.05
-25.11
-26.64
-27.41
-27.46
-27.17
-27.08
-27.73
-29.41
-32.06
-35.18
-37.91
-39.09
-37.59
-32.64
-24.12
-12.69
0.34
13.38
24.99
34.22
40.70
44.53
46.01
45.46
43.11
39.23
34.18
28.57
23.13
18.53
15.21
13.18
12.18
11.71
11.39
10.99
10.51
10.00
9.38
8.44
6.84
4.37
1.08
-2.65
-6.28
-9.42
-11.94
-14.05
-16.15
-18.58
-21.42
-24.41
-27.10
-29.10
-30.27
-30.84
-31.33
-32.36
-34.45
-37.73
-41.85
-45.95
-48.78
-49.00
-45.51
-37.83
-26.30
-12.06
3.20
17.67
29.90
39.01
44.83
47.58
47.72
45.74
42.12
37.37
32.02
26.65
21.75
17.68
14.61
12.56
11.47
11.19
11.54
12.31
13.23
13.95
14.11
13.36
11.49
8.51
4.78
0.88
-2.62
-5.42
-7.66
-9.81
-12.42
-15.78
-19.73
-23.82
-27.46
-30.27
-32.17
-33.42
-34.40
-35.67
-37.76
-41.03
-45.49
-50.58
-55.11
-57.41
-55.84
-49.29
-37.65
-21.89
-3.82
14.34
30.56
43.48
52.57
58.03
60.49
60.71
59.26
56.51
52.73
48.17
43.25
38.37
33.86
29.92
26.58
23.82
21.70
20.36
19.92
20.34
21.25
22.00
21.81
20.06
16.51
11.53
5.90
0.59
-3.64
-6.56
-8.47
-10.11
-12.23
-15.27
-19.17
-23.51
-27.74
-31.35
-34.14
-36.20
-37.88
-39.72
-42.29
-46.00
-50.89
-56.31
-60.99
-63.22
-61.28
-54.09
-41.57
-24.85
-5.90
12.91
29.47
42.39
51.10
55.77
56.95
55.25
51.22
45.40
38.50
31.40
25.12
20.54
18.08
17.62
18.50
19.91
21.11
21.67
21.51
20.80
19.82
18.73
17.48
15.79
13.32
9.87
5.57
0.97
-3.27
-6.63
-9.12
-11.24
-13.75
-17.23
-21.71
-26.67
-31.26
-34.77
-36.99
-38.28
-39.45
-41.42
-44.93
-50.36
-57.56
-65.75
-73.51
-78.89
-79.75
-74.35
-62.06
-43.74
-21.61
1.21
21.76
38.01
49.30
56.15
59.64
60.79
60.13
57.80
53.88
48.67
42.83
37.21
32.57
29.35
27.58
27.01
27.27
27.99
28.86
29.59
29.91
29.59
28.44
26.32
23.12
18.84
13.56
7.50
0.98
-5.67
-12.20
-18.52
-24.68
-30.79
-36.88
-42.89
-48.61
-53.77
-58.12
-61.55
-64.10
-66.01
-67.70
-69.82
-73.08
-78.14
-85.27
-94.12
-103.48
-111.34
-115.30
-113.21
-103.93
-87.69
-66.19
-42.08
-18.14
3.44
21.50
35.95
47.44
56.98
65.41
73.30
80.69
87.32
92.68
96.35
98.15
98.29
97.31
95.90
94.68
94.00
93.89
94.14
94.36
94.08
92.78
89.91
85.01
77.96
69.15
59.57
50.65
43.88
40.26
39.86
41.71
43.96
44.46
41.29
33.30
20.39
3.53
-15.51
-34.53
-51.46
-64.74
-73.63
-78.24
-79.38
-78.22
-75.85
-72.91
-69.41
-64.69
-57.70
-47.40
-33.28
-15.67
4.08
23.88
41.37
54.62
62.64
65.64
64.95
62.49
60.17
59.22
59.83
61.12
61.59
59.65
54.28
45.31
33.53
20.49
8.02
-2.14
-8.74
-11.30
-10.17
-6.49
-1.89
1.91
3.50
2.15
-2.09
-8.42
-15.66
-22.52
-27.99
-31.57
-33.30
-33.68
-33.39
-33.04
-33.05
-33.53
-34.44
-35.73
-37.42
-39.69
-42.77
-46.79
-51.64
-56.82
-61.45
-64.35
-64.23
-60.11
-51.65
-39.29
-24.31
-8.50
6.33
18.80
28.22
34.53
38.12
39.43
38.83
36.52
32.70
27.75
22.25
16.92
12.40
9.12
7.18
6.40
6.43
6.91
7.49
7.94
8.13
8.02
7.60
6.89
5.82
4.18
1.76
-1.61
-5.86
-10.61
-15.24
-19.11
-21.85
-23.59
-24.96
-26.97
-30.63
-36.72
-45.43
-56.27
-67.93
-78.39
-85.14
-85.76
-78.54
-63.23
-41.31
-15.69
9.97
32.37
49.37
60.38
66.17
68.25
68.19
67.12
65.58
63.62
61.02
57.56
53.18
48.05
42.47
36.86
31.56
26.85
22.88
19.76
17.55
16.24
15.60
15.11
13.87
10.90
5.43
-2.72
-12.97
-24.13
-34.78
-43.78
-50.52
-54.91
-57.28
-58.08
-57.75
-56.73
-55.61
-55.09
-56.02
-59.09
-64.50
-71.59
-78.71
-83.38
-83.00
-75.78
-61.58
-42.06
-20.27
0.57
18.16
31.72
41.79
49.49
55.62
60.36
63.40
64.50
63.93
62.46
61.05
60.28
60.08
59.85
58.77
56.32
52.56
48.13
43.90
40.61
38.38
36.68
34.55
31.06
25.79
19.15
12.16
6.03
1.54
-1.23
-2.90
-4.45
-6.70
-9.99
-14.10
-18.39
-22.13
-24.76
-26.12
-26.47
-26.46
-27.01
-29.00
-32.99
-38.83
-45.42
-50.82
-52.66
-48.91
-38.68
-22.64
-3.06
16.92
34.24
46.73
53.64
55.59
54.02
50.64
46.79
43.20
40.03
37.03
33.82
30.09
25.66
20.48
14.63
8.29
1.80
-4.32
-9.46
-13.06
-14.80
-14.76
-13.53
-11.96
-10.89
-10.88
-12.05
-14.05
-16.28
-18.08
-19.01
-19.07
-18.60
-18.19
-18.41
-19.54
-21.50
-23.85
-26.11
-27.92
-29.29
-30.56
-32.29
-35.03
-39.05
-44.23
-49.93
-55.03
-58.10
-57.67
-52.61
-42.55
-28.10
-10.75
7.43
24.35
38.42
48.76
55.26
58.23
58.21
55.72
51.29
45.50
39.10
32.96
27.86
24.24
22.11
20.98
20.13
18.96
17.23
15.14
13.13
11.54
10.40
9.30
7.73
5.27
1.96
-1.81
-5.41
-8.35
-10.52
-12.18
-13.84
-15.99
-18.85
-22.26
-25.78
-28.87
-31.18
-32.63
-33.48
-34.21
-35.34
-37.30
-40.37
-44.55
-49.46
-54.24
-57.55
-57.78
-53.50
-44.00
-29.72
-12.24
6.17
23.22
37.25
47.56
54.19
57.62
58.28
56.48
52.34
46.18
38.64
30.67
23.43
17.86
14.53
13.43
14.03
15.57
17.23
18.41
18.80
18.38
17.26
15.51
13.14
10.14
6.54
2.56
-1.41
-4.91
-7.59
-9.36
-10.51
-11.55
-13.10
-15.53
-18.88
-22.77
-26.58
-29.66
-31.66
-32.65
-33.08
-33.68
-35.15
-37.97
-42.25
-47.58
-53.12
-57.57
-59.38
-57.12
-49.88
-37.69
-21.56
-3.40
14.57
30.37
42.72
51.17
55.98
57.72
56.96
54.15
49.66
43.97
37.79
31.95
27.24
24.14
22.59
22.15
22.15
22.01
21.50
20.70
19.85
19.15
18.55
17.72
16.25
13.83
10.39
6.21
1.78
-2.38
-5.88
-8.64
-10.85
-12.87
-15.05
-17.55
-20.33
-23.14
-25.69
-27.78
-29.34
-30.45
-31.35
-32.37
-33.92
-36.37
-39.93
-44.49
-49.39
-53.50
-55.30
-53.36
-46.73
-35.33
-20.10
-2.82
14.32
29.36
40.97
48.68
52.83
54.17
53.51
51.45
48.34
44.43
40.05
35.62
31.59
28.20
25.47
23.16
21.01
18.93
16.95
15.22
13.75
12.34
10.62
8.24
5.04
1.14
-3.10
-7.24
-10.84
-13.58
-15.37
-16.30
-16.67
-16.88
-17.34
-18.23
-19.53
-21.00
-22.41
-23.62
-24.69
-25.85
-27.37
-29.39
-31.77
-34.05
-35.36
-34.67
-31.00
-23.79
-13.18
-0.10
14.03
27.69
39.65
49.14
55.70
58.99
58.77
54.95
47.91
38.63
28.48
18.88
10.80
4.52
-0.29
-4.27
-7.95
-11.45
-14.55
-16.77
-17.76
-17.44
-16.14
-14.52
-13.30
-13.05
-13.93
-15.65
-17.66
-19.38
-20.54
-21.26
-21.97
-23.19
-25.21
-27.97
-31.05
-33.86
-35.95
-37.27
-38.14
-39.13
-40.50
-41.85
-41.98
-39.16
-31.73
-18.71
-0.16
22.80
48.18
73.21
94.49
108.09
110.32
98.87
74.05
39.45
1.20
-33.84
-60.26
-75.60
-80.40
-77.01
-67.93
-54.87
-38.72
-20.34
-1.46
15.30
27.12
32.13
30.20
23.03
13.44
4.29
-2.47
-6.23
-7.57
-7.69
-7.74
-8.30
-9.30
-10.34
-11.11
-11.81
-13.26
-16.57
-22.65
-31.68
-42.79
-54.20
-63.58
-68.69
-67.94
-60.84
-48.02
-31.16
-12.42
6.04
22.62
36.54
47.83
57.04
64.75
71.22
76.05
78.36
77.07
71.45
61.62
48.66
34.40
20.72
8.99
-0.43
-7.99
-14.46
-20.31
-25.41
-29.26
-31.49
-32.33
-32.71
-33.77
-36.21
-39.84
-43.52
-45.70
-45.19
-41.69
-35.91
-29.25
-23.20
-18.85
-16.71
-16.78
-18.83
-22.71
-28.43
-35.99
-45.17
-55.26
-64.95
-72.51
-76.14
-74.51
-67.26
-55.17
-40.08
-24.39
-10.42
0.19
6.83
9.79
9.90
8.10
5.08
1.28
-2.99
-7.38
-11.73
-16.40
-22.47
-31.54
-44.98
-62.93
-83.66
-103.61
-118.31
-123.70
-117.14
-97.99
-67.43
-28.00
16.79
62.83
105.72
141.26
166.21
178.96
179.84
170.87
155.13
135.93
116.24
98.30
83.48
72.26
64.24
58.30
52.87
46.36
37.54
25.88
11.64
-4.08
-19.41
-31.98
-39.36
-39.58
-31.79
-16.70
3.54
25.74
46.65
63.77
75.90
83.20
86.70
87.69
87.25
86.01
84.27
82.17
79.79
77.11
73.87
69.54
63.54
55.63
46.29
36.80
28.80
23.49
20.94
19.77
17.72
12.59
3.47
-8.79
-21.81
-32.71
-39.26
-40.74
-38.06
-33.18
-28.27
-24.98
-24.19
-25.98
-29.93
-35.48
-42.02
-49.00
-55.87
-62.19
-67.63
-72.12
-75.91
-79.42
-82.95
-86.21
-88.23
-87.38
-81.95
-70.89
-54.40
-33.96
-12.00
8.94
26.85
40.74
50.54
56.85
60.43
61.95
61.79
60.15
57.22
53.33
49.08
45.23
42.49
41.23
41.34
42.35
43.64
44.75
45.48
45.89
46.05
45.87
45.06
43.27
40.31
36.36
31.98
28.03
25.21
23.85
23.64
23.70
22.76
19.60
13.41
4.04
-7.95
-21.40
-34.84
-46.82
-56.19
-62.42
-65.67
-66.88
-67.41
-68.61
-71.19
-74.83
-78.13
-78.95
-75.24
-65.82
-50.91
-32.19
-12.23
6.29
21.36
32.06
38.54
41.60
42.24
41.27
39.20
36.31
32.86
29.22
25.84
23.20
21.68
21.40
22.26
23.94
26.01
27.97
29.26
29.42
28.10
25.17
20.87
15.73
10.46
5.79
2.13
-0.57
-2.79
-5.23
-8.55
-13.04
-18.46
-24.20
-29.53
-33.92
-37.31
-40.23
-43.55
-48.17
-54.49
-62.11
-69.63
-74.95
-75.86
-70.87
-59.75
-43.77
-25.36
-7.40
7.68
18.56
25.26
28.90
31.12
33.42
36.68
40.92
45.46
49.32
51.62
51.80
49.76
45.72
40.08
33.31
26.00
18.89
12.78
8.36
5.89
5.01
4.82
4.19
2.22
-1.37
-6.19
-11.39
-16.13
-19.89
-22.62
-24.70
-26.59
-28.66
-31.05
-33.69
-36.44
-39.26
-42.32
-46.04
-50.97
-57.50
-65.59
-74.48
-82.63
-88.02
-88.59
-82.92
-70.72
-52.96
-31.64
-9.23
11.99
30.40
45.18
56.15
63.53
67.56
68.51
66.62
62.33
56.34
49.54
42.87
37.09
32.61
29.50
27.58
26.58
26.37
26.90
28.24
30.33
32.91
35.36
36.82
36.37
33.37
27.67
19.72
10.43
1.00
-7.54
-14.44
-19.45
-22.79
-25.05
-27.02
-29.52
-33.21
-38.31
-44.46
-50.55
-54.93
-55.76
-51.54
-41.69
-26.81
-8.64
10.46
28.13
42.71
53.41
60.24
63.63
64.08
62.00
57.79
51.98
45.28
38.51
32.27
26.79
21.84
16.83
11.06
4.02
-4.22
-12.81
-20.04
-23.84
-22.48
-15.53
-4.36
8.16
18.61
24.45
24.97
21.43
16.29
11.85
9.35
8.60
8.46
7.61
5.17
0.82
-5.28
-12.67
-20.72
-28.46
-34.54
-37.49
-36.09
-29.91
-19.55
-6.69
6.45
17.73
25.67
29.71
30.17
27.91
23.96
19.14
14.01
8.80
3.51
-1.88
-7.38
-13.00
-18.61
-23.97
-28.65
-32.05
-33.50
-32.60
-29.39
-24.57
-19.32
-14.97
-12.68
-13.00
-15.82
-20.37
-25.56
-30.29
-33.76
-35.74
-36.49
-36.58
-36.52
-36.48
-36.21
-35.45
-34.28
-33.47
-34.27
-37.78
-44.25
-52.47
-60.02
-64.02
-62.06
-52.96
-36.88
-14.83
11.82
41.47
72.10
101.03
125.26
142.17
150.34
149.83
141.69
127.11
106.65
80.33
48.38
12.08
-26.01
-62.60
-94.82
-121.31
-142.45
-160.00
-176.15
-192.76
-210.85
-230.63
-251.60
-272.76
-292.89
-310.95
-326.15
-338.19
-347.04
-352.65
-354.58
-352.03
-344.40
-332.09
-316.86
-301.56
-288.88
-280.02
-273.95
-267.80
-258.32
-243.60
-224.02
-201.85
-179.96
-160.33
-143.29
-127.89
-112.93
-97.90
-83.26
-69.98
-58.86
-49.95
-42.57
-35.65
-28.30
-20.17
-11.59
-3.33
3.78
9.22
12.97
15.43
17.22
18.89
20.66
22.47
24.05
25.17
25.77
26.06
26.42
27.27
28.94
31.52
34.90
38.87
43.20
47.79
52.67
58.01
64.00
70.77
78.29
86.34
94.53
102.38
109.41
115.26
119.73
122.80
124.57
125.13
124.52
122.68
119.57
115.20
109.82
103.95
98.35
93.81
90.93
89.96
90.72
92.77
95.65
99.08
103.12
108.07
114.31
122.13
131.68
143.05
156.25
171.05
186.80
202.40
216.74
229.06
239.37
248.28
256.50
264.18
270.57
274.31
274.06
269.24
260.13
247.57
232.41
215.14
196.07
175.80
155.61
137.51
124.02
117.64
120.32
132.94
154.83
183.59
215.42
245.70
270.12
285.88
292.51
292.03
288.16
284.98
285.34
289.93
297.06
303.40
305.43
300.64
288.36
269.53
245.93
219.34
191.32
163.50
137.98
117.17
102.85
95.03
91.23
87.02
77.46
58.90
30.18
-7.20
-49.80
-93.39
-133.79
-167.54
-192.22
-206.83
-212.07
-210.35
-205.11
-199.71
-196.33
-195.27
-195.07
-193.32
-187.71
-176.91
-160.95
-141.06
-119.17
-97.28
-76.94
-58.99
-43.65
-30.76
-20.09
-11.55
-5.14
-0.87
1.43
2.20
2.02
1.44
0.85
0.30
-0.39
-1.49
-3.19
-5.47
-8.11
-10.80
-13.29
-15.45
-17.34
-19.10
-20.95
-23.10
-25.72
-28.95
-32.81
-37.25
-42.03
-46.85
-51.34
-55.25
-58.58
-61.60
-64.86
-69.07
-74.91
-82.75
-92.42
-103.02
-112.93
-120.01
-122.11
-117.61
-105.91
-87.68
-64.73
-39.61
-14.93
7.16
25.26
38.87
48.10
53.47
55.63
55.22
52.84
49.04
44.34
39.17
33.96
29.03
24.66
21.04
18.29
16.43
15.33
14.67
14.04
12.98
11.09
8.17
4.26
-0.39
-5.44
-10.61
-15.71
-20.71
-25.68
-30.70
-35.76
-40.79
-45.64
-50.18
-54.30
-58.03
-61.58
-65.33
-69.73
-75.07
-81.17
-87.19
-91.53
-92.22
-87.47
-76.32
-59.10
-37.44
-13.83
9.11
29.30
45.60
57.84
66.43
71.99
74.97
75.56
73.82
69.80
63.78
56.29
48.16
40.37
33.84
29.29
27.02
26.82
28.06
29.85
31.27
31.63
30.55
27.92
23.86
18.60
12.45
5.76
-1.12
-7.97
-14.69
-21.28
-27.70
-33.78
-39.21
-43.63
-46.85
-49.01
-50.62
-52.47
-55.39
-60.03
-66.56
-74.51
-82.61
-89.02
-91.65
-88.87
-79.95
-65.44
-46.97
-26.75
-6.91
11.00
26.14
38.25
47.32
53.39
56.49
56.69
54.31
49.92
44.37
38.54
33.19
28.82
25.55
23.30
21.83
20.95
20.53
20.51
20.79
21.17
21.40
21.19
20.42
19.13
17.54
15.88
14.32
12.87
11.48
10.18
9.04
8.23
7.72
7.14
5.77
2.68
-2.99
-11.69
-23.43
-37.75
-53.85
-70.56
-86.26
-98.90
-106.16
-106.01
-97.38
-80.64
-57.70
-31.55
-5.48
17.81
36.66
50.53
59.69
64.68
66.08
64.35
59.97
53.65
46.34
39.12
32.90
28.18
24.89
22.50
20.32
17.75
14.49
10.53
6.06
1.25
-3.79
-9.04
-14.54
-20.36
-26.58
-33.33
-40.69
-48.65
-56.98
-65.23
-72.77
-79.11
-83.99
-87.60
-90.49
-93.39
-97.03
-101.95
-108.41
-116.31
-125.02
-133.33
-139.47
-141.46
-137.57
-126.94
-109.92
-88.11
-63.85
-39.61
-17.44
1.45
16.66
28.26
36.59
42.00
44.77
45.26
43.91
41.28
37.97
34.46
31.10
28.15
25.82
24.36
23.96
24.62
26.02
27.53
28.41
28.05
26.22
23.06
19.01
14.48
9.70
4.56
-1.31
-8.35
-16.80
-26.51
-36.76
-46.34
-53.76
-57.58
-56.92
-51.77
-43.15
-32.90
-23.24
-16.08
-12.43
-12.10
-13.82
-15.75
-16.11
-13.72
-8.14
0.44
11.49
24.47
38.78
53.71
68.30
81.29
91.38
97.54
99.28
96.81
90.93
82.78
73.64
64.69
56.94
51.06
47.42
46.02
46.48
48.10
49.96
51.06
50.56
47.93
43.13
36.58
28.97
21.05
13.34
6.02
-1.02
-7.94
-14.82
-21.59
-28.10
-34.32
-40.46
-46.91
-54.10
-62.36
-71.63
-81.43
-90.77
-98.18
-101.91
-100.22
-91.81
-76.36
-54.68
-28.69
-0.95
25.86
49.55
68.70
82.77
91.89
96.66
97.94
96.76
94.23
91.50
89.55
89.04
90.10
92.30
94.77
96.49
96.65
94.97
91.72
87.50
82.88
77.99
72.41
65.34
56.02
44.26
30.70
16.81
4.40
-4.95
-10.52
-12.61
-12.40
-11.43
-11.04
-12.00
-14.44
-17.95
-21.76
-24.85
-26.01
-23.91
-17.35
-5.62
11.23
32.28
56.04
80.85
105.18
127.59
146.51
159.94
165.64
161.64
147.00
122.33
89.81
52.75
14.76
-21.01
-52.64
-79.72
-103.32
-125.37
-147.77
-171.38
-195.55
-218.20
-236.57
-248.38
-252.76
-250.57
-244.05
-235.84
-228.08
-221.75
-216.55
-211.27
-204.46
-195.06
-182.92
-168.81
-154.27
-140.94
-130.23
-123.00
-119.40
-118.77
-119.53
-119.25
-115.09
-104.52
-86.28
-61.00
-31.11
-0.18
28.24
51.66
69.10
80.97
88.39
92.58
94.34
94.08
91.97
88.21
83.20
77.56
71.93
66.88
62.75
59.58
57.20
55.29
53.51
51.59
49.31
46.56
43.18
39.04
33.97
27.89
20.81
12.97
4.74
-3.45
-11.26
-18.51
-25.23
-31.63
-37.94
-44.45
-51.45
-59.29
-68.27
-78.38
-89.03
-98.77
-105.47
-106.74
-100.83
-87.25
-67.10
-42.82
-17.41
6.37
26.74
43.03
55.42
64.51
70.89
74.89
76.70
76.51
74.62
71.53
67.73
63.65
59.51
55.47
51.71
48.47
46.02
44.47
43.61
42.89
41.62
39.16
35.26
30.04
23.93
17.49
11.12
4.96
-1.10
-7.24
-13.62
-20.18
-26.72
-32.95
-38.74
-44.24
-49.84
-56.14
-63.70
-72.82
-83.28
-94.19
-103.97
-110.54
-111.74
-106.00
-92.87
-73.25
-49.27
-23.68
0.90
22.59
40.44
54.41
64.92
72.45
77.37
79.82
79.89
77.82
74.04
69.26
64.19
59.44
55.36
52.06
49.52
47.70
46.60
46.20
46.24
46.25
45.51
43.35
39.38
33.68
26.81
19.59
12.77
6.74
1.40
-3.75
-9.30
-15.66
-22.80
-30.32
-37.56
-43.95
-49.28
-53.79
-58.16
-63.24
-69.82
-78.32
-88.50
-99.35
-109.01
-115.11
-115.32
-108.06
-93.09
-71.68
-46.32
-19.98
4.69
26.01
43.33
56.79
66.81
73.71
77.57
78.51
76.86
73.34
68.96
64.69
61.13
58.40
56.22
54.19
52.09
49.95
48.06
46.68
45.84
45.25
44.31
42.40
39.03
34.07
27.80
20.85
13.97
7.73
2.32
-2.51
-7.30
-12.59
-18.64
-25.29
-32.04
-38.34
-43.82
-48.49
-52.69
-56.97
-61.96
-68.22
-76.07
-85.46
-95.69
-105.34
-112.36
-114.50
-109.97
-98.07
-79.52
-56.28
-30.99
-6.19
16.24
35.30
50.76
62.74
71.44
77.00
79.54
79.34
76.92
73.05
68.59
64.30
60.71
58.09
56.48
55.75
55.66
55.92
56.19
56.12
55.40
53.82
51.26
47.75
43.43
38.49
33.18
27.71
22.25
16.90
11.66
6.52
1.47
-3.47
-8.27
-12.94
-17.61
-22.48
-27.77
-33.52
-39.57
-45.54
-51.05
-55.86
-60.09
-64.26
-69.09
-75.33
-83.42
-93.10
-103.33
-112.24
-117.51
-116.99
-109.31
-94.44
-73.68
-49.32
-23.93
0.29
21.92
40.27
55.12
66.50
74.46
79.16
80.92
80.29
77.92
74.52
70.68
66.88
63.45
60.68
58.72
57.65
57.31
57.44
57.60
57.31
56.16
53.87
50.37
45.88
40.76
35.49
30.45
25.80
21.45
17.15
12.61
7.71
2.59
-2.46
-7.12
-11.27
-15.08
-18.98
-23.45
-28.74
-34.75
-41.09
-47.24
-52.80
-57.65
-61.95
-66.12
-70.65
-76.06
-82.72
-90.63
-99.13
-106.78
-111.47
-110.97
-103.66
-89.16
-68.57
-44.16
-18.66
5.48
26.62
44.04
57.68
67.76
74.55
78.29
79.22
77.79
74.68
70.68
66.61
63.02
60.19
58.10
56.56
55.44
54.67
54.29
54.21
54.17
53.69
52.22
49.37
45.13
39.93
34.47
29.45
25.25
21.82
18.72
15.35
11.27
6.40
1.03
-4.37
-9.34
-13.65
-17.44
-21.09
-25.06
-29.64
-34.90
-40.58
-46.24
-51.45
-55.99
-59.95
-63.75
-68.02
-73.44
-80.45
-89.02
-98.42
-107.18
-113.18
-114.24
-108.70
-95.97
-76.86
-53.31
-27.94
-3.30
18.69
36.98
51.29
61.82
68.93
72.99
74.38
73.53
70.98
67.43
63.54
59.86
56.73
54.27
52.45
51.22
50.53
50.36
50.56
50.87
50.86
50.08
48.21
45.09
40.87
35.91
30.66
25.54
20.77
16.38
12.16
7.87
3.34
-1.44
-6.27
-10.90
-15.16
-19.13
-23.05
-27.25
-31.95
-37.09
-42.39
-47.45
-51.95
-55.81
-59.29
-62.92
-67.38
-73.29
-80.90
-89.83
-98.94
-106.34
-109.77
-107.17
-97.38
-80.57
-58.37
-33.35
-8.38
14.16
32.85
47.26
57.71
64.81
69.12
70.98
70.65
68.47
64.96
60.82
56.76
53.31
50.70
48.90
47.75
47.08
46.80
46.84
47.09
47.34
47.24
46.38
44.43
41.25
36.96
31.95
26.79
22.03
18.00
14.63
11.54
8.17
4.11
-0.70
-5.87
-10.77
-14.88
-18.11
-20.85
-23.79
-27.61
-32.58
-38.43
-44.50
-50.10
-54.77
-58.55
-61.87
-65.39
-69.77
-75.55
-82.94
-91.69
-100.92
-108.95
-113.60
-112.61
-104.47
-88.98
-67.44
-42.35
-16.64
7.06
27.06
42.69
54.06
61.74
66.37
68.45
68.44
66.80
64.03
60.72
57.43
54.57
52.29
50.52
49.13
48.07
47.39
47.24
47.68
48.49
49.17
49.06
47.60
44.52
40.00
34.65
29.24
24.47
20.72
17.87
15.38
12.52
8.76
3.99
-1.42
-6.81
-11.58
-15.54
-18.98
-22.49
-26.61
-31.59
-37.25
-43.07
-48.48
-53.13
-56.97
-60.35
-63.84
-68.13
-73.81
-81.21
-90.15
-99.71
-108.18
-113.32
-112.86
-105.26
-90.28
-69.20
-44.50
-19.11
4.37
24.30
40.05
51.84
60.22
65.71
68.70
69.47
68.40
65.94
62.72
59.30
56.11
53.41
51.28
49.73
48.79
48.52
48.89
49.72
50.65
51.13
50.60
48.69
45.38
40.97
35.98
30.97
26.32
22.12
18.22
14.32
10.14
5.61
0.86
-3.80
-8.10
-11.98
-15.67
-19.59
-24.16
-29.51
-35.42
-41.39
-46.88
-51.55
-55.44
-58.97
-62.81
-67.68
-74.17
-82.43
-91.98
-101.48
-108.90
-111.88
-108.44
-97.67
-80.11
-57.67
-33.08
-9.05
12.36
30.10
44.04
54.59
62.26
67.45
70.34
71.07
69.87
67.16
63.56
59.73
56.22
53.36
51.28
49.97
49.42
49.60
50.39
51.51
52.45
52.58
51.33
48.49
44.30
39.35
34.35
29.78
25.78
22.10
18.33
14.10
9.30
4.12
-1.05
-5.79
-9.83
-13.22
-16.33
-19.70
-23.79
-28.79
-34.47
-40.33
-45.78
-50.44
-54.27
-57.61
-61.05
-65.35
-71.19
-78.91
-88.22
-97.88
-105.73
-109.09
-105.61
-94.11
-75.21
-51.17
-25.25
-0.72
20.10
36.19
47.71
55.48
60.43
63.20
64.06
63.15
60.62
56.96
52.90
49.25
46.60
45.15
44.66
44.67
44.78
44.84
44.92
45.15
45.47
45.54
44.88
43.08
40.10
36.25
32.09
28.14
24.56
21.21
17.68
13.63
8.95
3.88
-1.19
-5.90
-10.09
-13.92
-17.74
-21.86
-26.45
-31.35
-36.21
-40.67
-44.57
-48.08
-51.69
-56.10
-61.88
-69.29
-77.97
-86.83
-94.21
-98.15
-96.86
-89.25
-75.31
-56.22
-34.07
-11.35
9.66
27.44
41.34
51.46
58.31
62.38
64.00
63.35
60.69
56.53
51.72
47.19
43.70
41.56
40.55
40.16
39.91
39.62
39.45
39.66
40.31
41.07
41.22
40.00
36.95
32.12
26.09
19.70
13.75
8.67
4.42
0.66
-3.07
-7.07
-11.40
-15.96
-20.54
-25.00
-29.31
-33.59
-37.97
-42.66
-47.90
-53.92
-60.82
-68.46
-76.21
-82.94
-87.12
-87.18
-81.96
-71.11
-55.32
-36.12
-15.54
4.42
22.19
36.83
47.90
55.30
59.08
59.42
56.69
51.64
45.31
38.90
33.44
29.52
27.25
26.35
26.41
27.04
27.96
28.93
29.67
29.78
28.91
26.77
23.28
18.60
13.06
7.14
1.29
-4.22
-9.36
-14.29
-19.39
-24.98
-31.17
-37.78
-44.33
-50.29
-55.35
-59.59
-63.56
-68.12
-74.15
-82.24
-92.32
-103.43
-113.78
-120.99
-122.71
-117.33
-104.51
-85.35
-62.08
-37.37
-13.63
7.60
25.72
40.87
53.50
63.95
72.35
78.60
82.60
84.35
84.11
82.31
79.46
76.08
72.63
69.52
67.02
65.30
64.34
63.94
63.73
63.28
62.19
60.18
57.16
53.20
48.51
43.39
38.07
32.67
27.15
21.40
15.32
8.99
2.67
-3.31
-8.73
-13.67
-18.46
-23.56
-29.32
-35.76
-42.64
-49.50
-55.95
-61.80
-67.20
-72.57
-78.53
-85.72
-94.60
-105.13
-116.50
-127.04
-134.42
-136.21
-130.65
-117.26
-97.11
-72.46
-46.12
-20.64
2.34
22.15
38.95
53.22
65.44
75.83
84.37
90.89
95.27
97.45
97.52
95.76
92.61
88.67
84.62
81.07
78.45
76.91
76.26
76.17
76.23
76.06
75.29
73.60
70.70
66.42
60.89
54.52
47.90
41.62
36.05
31.22
26.84
22.50
17.80
12.51
6.63
0.42
-5.71
-11.36
-16.29
-20.62
-24.76
-29.23
-34.42
-40.38
-46.81
-53.26
-59.36
-64.95
-70.17
-75.33
-80.88
-87.29
-95.03
-104.34
-114.95
-125.81
-135.01
-140.16
-139.05
-130.38
-114.27
-92.25
-66.78
-40.43
-15.31
7.37
27.16
44.16
58.64
70.85
80.96
89.00
94.90
98.52
99.78
98.72
95.71
91.44
86.76
82.45
79.06
76.75
75.44
74.86
74.67
74.49
73.87
72.34
69.58
65.54
60.49
54.93
49.41
44.25
39.53
35.04
30.56
25.93
21.18
16.47
11.97
7.73
3.63
-0.53
-4.92
-9.58
-14.34
-18.88
-22.96
-26.49
-29.66
-32.89
-36.61
-41.14
-46.48
-52.37
-58.33
-63.89
-68.80
-73.07
-77.02
-81.25
-86.47
-93.29
-101.92
-111.91
-121.95
-130.01
-133.78
-131.25
-121.39
-104.47
-82.06
-56.55
-30.49
-6.00
15.65
34.01
49.23
61.66
71.58
79.04
83.91
86.13
85.80
83.39
79.61
75.27
71.05
67.39
64.55
62.59
61.53
61.30
61.71
62.42
62.96
62.74
61.32
58.47
54.26
49.10
43.53
38.07
33.09
28.66
24.58
20.52
16.14
11.25
5.91
0.41
-4.87
-9.61
-13.71
-17.32
-20.83
-24.69
-29.23
-34.45
-40.07
-45.61
-50.66
-55.02
-58.85
-62.65
-67.09
-72.86
-80.35
-89.42
-99.23
-108.24
-114.43
-115.84
-111.08
-99.77
-82.68
-61.51
-38.36
-15.27
6.17
25.00
40.76
53.37
62.96
69.76
74.04
76.03
76.01
74.28
71.22
67.37
63.32
59.67
56.86
55.10
54.36
54.41
54.86
55.35
55.52
55.06
53.74
51.41
48.01
43.68
38.69
33.46
28.40
23.87
19.96
16.49
13.11
9.41
5.17
0.41
-4.61
-9.52
-14.03
-18.07
-21.77
-25.41
-29.29
-33.63
-38.51
-43.82
-49.35
-54.87
-60.17
-65.16
-69.86
-74.44
-79.18
-84.54
-91.05
-99.07
-108.56
-118.63
-127.51
-132.82
-132.22
-124.18
-108.62
-86.90
-61.45
-35.03
-9.98
12.15
30.70
45.71
57.64
67.03
74.35
79.87
83.63
85.62
85.79
84.27
81.39
77.67
73.73
70.16
67.41
65.67
64.87
64.66
64.63
64.36
63.58
62.10
59.85
56.77
52.81
48.05
42.69
37.13
31.77
26.92
22.66
18.80
15.02
11.01
6.61
1.80
-3.25
-8.30
-13.05
-17.32
-21.08
-24.48
-27.86
-31.60
-35.97
-41.02
-46.53
-52.14
-57.47
-62.33
-66.73
-70.93
-75.37
-80.55
-87.01
-95.02
-104.40
-114.22
-122.71
-127.52
-126.39
-117.88
-101.95
-80.10
-54.87
-29.13
-5.21
15.47
32.49
46.09
56.81
65.12
71.32
75.61
78.11
78.94
78.30
76.46
73.71
70.38
66.84
63.45
60.58
58.48
57.29
56.94
57.18
57.61
57.73
57.10
55.37
52.42
48.31
43.36
37.98
32.65
27.69
23.27
19.30
15.55
11.72
7.59
3.11
-1.58
-6.24
-10.61
-14.52
-18.02
-21.36
-24.88
-28.91
-33.62
-38.96
-44.66
-50.32
-55.54
-60.10
-64.01
-67.60
-71.49
-76.43
-83.09
-91.73
-101.86
-112.06
-120.16
-123.64
-120.41
-109.49
-91.41
-68.13
-42.48
-17.31
5.16
23.81
38.48
49.63
57.90
63.79
67.54
69.31
69.33
67.99
65.78
63.21
60.70
58.47
56.57
54.98
53.72
52.82
52.38
52.38
52.63
52.77
52.34
50.95
48.42
44.86
40.63
36.17
31.88
27.94
24.33
20.82
17.13
13.06
8.59
3.91
-0.66
-4.81
-8.44
-11.69
-14.96
-18.70
-23.21
-28.46
-34.09
-39.54
-44.30
-48.15
-51.28
-54.20
-57.64
-62.32
-68.73
-76.94
-86.42
-95.90
-103.51
-107.07
-104.65
-95.26
-79.16
-58.04
-34.45
-11.12
9.78
27.10
40.63
50.74
57.90
62.38
64.27
63.66
60.90
56.68
51.91
47.47
43.98
41.68
40.48
40.12
40.32
40.87
41.60
42.35
42.93
43.06
42.48
40.98
38.43
34.88
30.51
25.62
20.62
15.90
11.72
8.09
4.78
1.39
-2.44
-6.88
-11.81
-16.87
-21.69
-25.97
-29.67
-32.96
-36.13
-39.55
-43.58
-48.54
-54.60
-61.59
-68.81
-74.95
-78.33
-77.30
-70.79
-58.75
-42.22
-23.05
-3.40
14.78
30.14
41.99
50.16
54.78
56.07
54.37
50.14
44.04
36.94
29.76
23.32
18.21
14.75
12.98
12.77
13.90
16.06
18.81
21.64
23.96
25.24
25.15
23.52
20.48
16.31
11.40
6.16
0.89
-4.29
-9.39
-14.57
-19.95
-25.54
-31.21
-36.69
-41.78
-46.46
-50.98
-55.84
-61.53
-68.22
-75.51
-82.33
-87.05
-87.92
-83.52
-73.23
-57.50
-37.75
-16.08
5.32
24.61
40.61
52.84
61.33
66.33
68.15
67.01
63.24
57.36
50.20
42.77
36.07
30.88
27.55
25.98
25.74
26.20
26.73
26.88
26.40
25.25
23.45
21.02
17.87
13.87
8.90
2.97
-3.72
-10.83
-17.95
-24.73
-30.96
-36.58
-41.73
-46.70
-51.92
-57.88
-64.98
-73.28
-82.22
-90.54
-96.34
-97.61
-92.77
-81.30
-63.98
-42.67
-19.84
2.20
21.76
38.02
50.84
60.44
67.14
71.17
72.75
72.14
69.73
66.05
61.65
57.02
52.55
48.48
44.97
42.17
40.23
39.22
39.07
39.50
39.94
39.74
38.23
35.00
30.07
23.85
17.09
10.51
4.64
-0.50
-5.28
-10.31
-16.12
-22.91
-30.40
-38.00
-45.04
-51.04
-55.96
-60.19
-64.47
-69.68
-76.64
-85.70
-96.44
-107.44
-116.35
-120.46
-117.46
-106.34
-87.78
-63.99
-38.03
-12.86
9.37
27.61
41.78
52.42
60.31
66.21
70.75
74.32
77.02
78.70
79.04
77.81
75.05
71.16
66.78
62.67
59.46
57.44
56.52
56.29
56.20
55.71
54.43
52.21
49.10
45.23
40.76
35.79
30.33
24.44
18.21
11.86
5.63
-0.20
-5.51
-10.34
-14.91
-19.56
-24.65
-30.37
-36.67
-43.26
-49.70
-55.67
-61.00
-65.87
-70.75
-76.29
-83.12
-91.68
-101.84
-112.69
-122.42
-128.53
-128.46
-120.43
-104.15
-81.05
-53.94
-26.13
-0.48
21.27
38.64
52.08
62.38
70.31
76.39
80.89
83.96
85.72
86.28
85.63
83.78
80.78
76.85
72.39
67.99
64.28
61.67
60.27
59.78
59.62
59.13
57.70
55.03
51.15
46.38
41.14
35.84
30.66
25.57
20.37
14.87
8.98
2.86
-3.18
-8.79
-13.77
-18.19
-22.36
-26.74
-31.72
-37.40
-43.59
-49.83
-55.59
-60.52
-64.69
-68.63
-73.20
-79.36
-87.75
-98.37
-110.26
-121.51
-129.56
-131.76
-126.18
-112.24
-91.00
-64.90
-37.15
-10.78
12.05
30.40
44.44
54.95
62.92
69.13
74.03
77.75
80.24
81.35
80.98
79.16
76.11
72.26
68.13
64.29
61.17
59.03
57.96
57.79
58.20
58.63
58.45
57.08
54.22
49.90
44.60
38.95
33.53
28.66
24.26
20.03
15.56
10.58
5.08
-0.69
-6.32
-11.42
-15.78
-19.52
-22.99
-26.70
-31.12
-36.43
-42.46
-48.75
-54.73
-59.99
-64.45
-68.42
-72.57
-77.71
-84.55
-93.33
-103.53
-113.60
-121.18
-123.63
-118.81
-105.92
-85.84
-60.94
-34.34
-8.98
13.13
31.16
45.26
56.07
64.29
70.41
74.71
77.34
78.43
78.18
76.81
74.52
71.48
67.83
63.81
59.74
56.08
53.32
51.78
51.48
52.05
52.80
52.94
51.84
49.24
45.30
40.48
35.36
30.43
25.96
21.97
18.22
14.38
10.13
5.35
0.14
-5.20
-10.25
-14.71
-18.54
-22.02
-25.64
-29.90
-35.10
-41.11
-47.47
-53.57
-58.82
-63.03
-66.41
-69.56
-73.33
-78.60
-85.91
-95.15
-105.22
-114.01
-118.90
-117.37
-107.98
-90.96
-68.20
-42.70
-17.63
4.55
22.53
36.12
45.88
52.65
57.29
60.50
62.86
64.72
66.25
67.34
67.72
67.09
65.29
62.46
59.08
55.89
53.62
52.71
53.09
54.22
55.21
55.22
53.73
50.69
46.39
41.29
35.83
30.36
25.08
20.12
15.50
11.20
7.09
2.99
-1.22
-5.59
-10.08
-14.63
-19.22
-23.89
-28.68
-33.53
-38.26
-42.62
-46.41
-49.63
-52.58
-55.83
-60.07
-65.88
-73.38
-82.02
-90.44
-96.63
-98.43
-94.15
-83.15
-66.14
-45.01
-22.27
-0.43
18.64
33.94
45.34
53.25
58.27
60.90
61.45
60.11
57.12
52.89
48.02
43.25
39.21
36.24
34.38
33.39
32.97
32.87
32.98
33.29
33.73
34.12
34.09
33.23
31.14
27.59
22.63
16.59
10.03
3.58
-2.30
-7.44
-12.02
-16.45
-21.16
-26.36
-31.96
-37.59
-42.78
-47.15
-50.60
-53.33
-55.92
-59.09
-63.61
-70.01
-78.36
-87.95
-97.23
-104.01
-105.91
-101.13
-89.02
-70.44
-47.53
-23.12
0.12
20.23
36.32
48.39
56.98
62.74
66.17
67.55
67.05
64.89
61.42
57.14
52.63
48.41
44.83
42.00
39.88
38.37
37.39
36.91
36.88
37.15
37.35
37.01
35.68
33.05
29.11
24.09
18.42
12.53
6.83
1.56
-3.18
-7.45
-11.45
-15.43
-19.69
-24.43
-29.73
-35.50
-41.54
-47.51
-53.10
-58.05
-62.34
-66.29
-70.51
-75.80
-82.86
-91.91
-102.29
-112.41
-119.91
-122.21
-117.40
-104.75
-85.12
-60.69
-34.34
-8.83
13.75
32.32
46.72
57.40
65.08
70.45
74.06
76.25
77.22
77.07
75.91
73.88
71.21
68.17
65.10
62.30
60.02
58.45
57.67
57.56
57.83
58.01
57.52
55.87
52.86
48.62
43.59
38.34
33.28
28.50
23.77
18.78
13.37
7.67
2.09
-2.97
-7.38
-11.34
-15.35
-19.91
-25.23
-31.18
-37.32
-43.18
-48.39
-52.90
-56.95
-61.05
-65.83
-71.93
-79.77
-89.26
-99.56
-109.01
-115.29
-116.00
-109.31
-94.64
-72.90
-46.30
-17.75
9.89
34.40
54.44
69.51
79.66
85.23
86.78
85.00
80.82
75.24
69.25
63.64
58.87
55.05
52.09
49.80
48.07
46.97
46.67
47.27
48.69
50.49
51.99
52.40
51.15
48.07
43.52
38.22
32.94
28.22
24.15
20.45
16.65
12.36
7.47
2.20
-3.05
-7.89
-12.14
-15.94
-19.63
-23.63
-28.22
-33.42
-39.03
-44.69
-50.09
-55.03
-59.52
-63.78
-68.18
-73.22
-79.46
-87.31
-96.68
-106.76
-115.85
-121.60
-121.64
-114.27
-99.15
-77.48
-51.75
-24.98
0.04
21.48
38.57
51.51
61.00
67.81
72.49
75.29
76.36
75.80
73.84
70.82
67.14
63.19
59.31
55.89
53.23
51.61
51.07
51.44
52.23
52.79
52.52
51.01
48.18
44.26
39.66
34.82
30.08
25.55
21.16
16.72
12.08
7.22
2.25
-2.66
-7.35
-11.81
-16.18
-20.65
-25.34
-30.24
-35.15
-39.84
-44.10
-47.89
-51.38
-54.98
-59.27
-64.87
-72.25
-81.31
-91.18
-100.09
-105.73
-105.80
-98.82
-84.65
-64.58
-41.01
-16.62
6.25
26.12
42.36
54.97
64.18
70.23
73.34
73.75
71.88
68.36
63.89
59.16
54.69
50.78
47.57
45.13
43.48
42.63
42.55
43.02
43.70
44.07
43.57
41.82
38.74
34.58
29.88
25.22
20.97
17.21
13.70
10.00
5.76
0.80
-4.72
-10.40
-15.78
-20.54
-24.57
-28.15
-31.74
-35.83
-40.71
-46.31
-52.19
-57.78
-62.63
-66.61
-70.01
-73.45
-77.68
-83.40
-90.97
-100.11
-109.74
-117.92
-122.20
-120.26
-110.71
-93.60
-70.53
-44.19
-17.51
7.04
27.97
44.75
57.54
66.84
73.16
76.98
78.70
78.75
77.60
75.69
73.41
71.05
68.71
66.45
64.27
62.27
60.62
59.50
58.99
58.92
58.90
58.37
56.80
53.94
49.85
44.92
39.68
34.61
29.95
25.65
21.43
17.00
12.17
6.98
1.67
-3.47
-8.23
-12.59
-16.76
-21.12
-26.00
-31.61
-37.88
-44.45
-50.82
-56.50
-61.24
-65.13
-68.70
-72.72
-78.08
-85.33
-94.38
-104.18
-112.77
-117.64
-116.40
-107.55
-91.08
-68.52
-42.51
-16.08
8.17
28.58
44.54
56.24
64.30
69.41
72.19
73.13
72.68
71.19
68.99
66.33
63.39
60.32
57.31
54.59
52.42
51.05
50.54
50.70
51.10
51.11
50.13
47.78
44.07
39.32
34.10
28.93
24.12
19.68
15.38
10.97
6.24
1.25
-3.83
-8.75
-13.30
-17.38
-21.10
-24.70
-28.48
-32.69
-37.37
-42.29
-47.01
-51.05
-54.15
-56.48
-58.70
-61.77
-66.68
-73.98
-83.50
-94.03
-103.46
-109.25
-108.98
-101.21
-85.90
-64.53
-39.72
-14.44
8.68
27.95
42.68
53.03
59.66
63.33
64.76
64.49
62.94
60.42
57.14
53.41
49.57
46.04
43.21
41.37
40.56
40.63
41.30
42.20
42.99
43.32
42.89
41.41
38.75
34.95
30.25
25.02
19.68
14.54
9.77
5.39
1.33
-2.55
-6.49
-10.72
-15.49
-20.89
-26.83
-32.98
-38.90
-44.17
-48.53
-52.06
-55.15
-58.45
-62.75
-68.73
-76.72
-86.43
-96.75
-105.76
-111.09
-110.47
-102.47
-87.04
-65.63
-40.79
-15.48
7.77
27.34
42.70
54.09
62.10
67.28
70.03
70.62
69.41
66.86
63.57
60.05
56.67
53.54
50.68
48.10
45.96
44.53
44.04
44.51
45.62
46.72
47.03
45.93
43.19
39.07
34.17
29.13
24.37
19.95
15.65
11.17
6.32
1.18
-4.03
-9.07
-13.86
-18.52
-23.29
-28.43
-34.04
-40.02
-46.04
-51.69
-56.61
-60.68
-64.16
-67.68
-72.16
-78.47
-87.11
-97.80
-109.28
-119.37
-125.39
-124.84
-116.24
-99.58
-76.49
-49.71
-22.37
2.83
24.16
41.00
53.57
62.60
68.88
73.12
75.77
77.12
77.28
76.32
74.32
71.48
68.07
64.48
61.11
58.37
56.58
55.95
56.41
57.57
58.76
59.10
57.88
54.80
50.08
44.36
38.43
32.91
28.08
23.81
19.76
15.53
10.87
5.74
0.32
-5.13
-10.35
-15.27
-20.00
-24.83
-30.03
-35.69
-41.59
-47.30
-52.38
-56.70
-60.54
-64.54
-69.53
-76.23
-84.98
-95.50
-106.76
-116.90
-123.54
-124.31
-117.51
-102.78
-81.35
-55.71
-28.89
-3.65
18.20
35.98
49.84
60.42
68.37
74.12
77.90
79.79
79.92
78.51
75.96
72.69
69.13
65.60
62.33
59.56
57.53
56.43
56.28
56.87
57.63
57.85
56.87
54.30
50.21
45.04
39.46
34.10
29.35
25.21
21.37
17.41
12.93
7.85
2.34
-3.20
-8.39
-13.03
-17.22
-21.27
-25.55
-30.35
-35.69
-41.39
-47.08
-52.39
-57.15
-61.45
-65.74
-70.68
-76.98
-85.07
-94.86
-105.47
-115.26
-122.01
-123.49
-118.05
-105.18
-85.74
-61.75
-35.85
-10.63
12.00
31.02
46.21
57.85
66.33
72.00
75.12
75.93
74.79
72.19
68.73
64.98
61.44
58.45
56.18
54.68
53.93
53.82
54.13
54.52
54.53
53.70
51.69
48.47
44.34
39.82
35.39
31.31
27.54
23.76
19.65
15.09
10.23
5.39
0.82
-3.42
-7.54
-11.80
-16.40
-21.31
-26.29
-31.04
-35.34
-39.16
-42.67
-46.26
-50.42
-55.70
-62.45
-70.72
-79.97
-89.02
-96.11
-99.26
-96.75
-87.72
-72.46
-52.45
-29.98
-7.50
13.03
30.50
44.60
55.47
63.31
68.11
69.75
68.29
64.19
58.41
52.18
46.67
42.67
40.41
39.66
39.90
40.63
41.41
41.98
42.20
41.92
41.00
39.27
36.59
32.97
28.55
23.59
18.35
13.04
7.79
2.66
-2.27
-6.98
-11.52
-16.05
-20.78
-25.87
-31.30
-36.80
-41.97
-46.48
-50.24
-53.56
-57.08
-61.61
-67.89
-76.33
-86.68
-97.87
-108.06
-114.86
-116.01
-109.95
-96.42
-76.57
-52.67
-27.46
-3.45
17.60
34.87
48.37
58.60
66.13
71.42
74.68
75.97
75.38
73.12
69.62
65.46
61.23
57.44
54.41
52.28
51.00
50.44
50.32
50.31
50.02
49.11
47.30
44.47
40.68
36.10
31.05
25.79
20.51
15.29
10.12
4.97
-0.15
-5.16
-10.04
-14.80
-19.61
-24.70
-30.24
-36.18
-42.30
-48.25
-53.68
-58.49
-62.85
-67.23
-72.31
-78.78
-87.12
-97.26
-108.29
-118.35
-124.90
-125.42
-118.17
-102.90
-81.02
-55.12
-28.23
-2.94
19.14
37.44
52.11
63.67
72.62
79.33
84.08
87.03
88.32
88.07
86.38
83.43
79.49
74.97
70.39
66.31
63.16
61.15
60.20
59.93
59.75
59.03
57.26
54.18
49.85
44.62
39.03
33.56
28.49
23.80
19.20
14.28
8.81
2.81
-3.36
-9.21
-14.35
-18.71
-22.58
-26.48
-30.90
-36.13
-42.06
-48.31
-54.37
-59.86
-64.67
-69.03
-73.49
-78.79
-85.63
-94.33
-104.56
-115.06
-123.68
-127.85
-125.26
-114.63
-96.31
-72.17
-45.07
-18.03
6.57
27.41
44.15
57.12
66.91
74.07
79.05
82.20
83.80
84.09
83.21
81.25
78.26
74.42
70.02
65.50
61.37
58.07
55.85
54.72
54.42
54.47
54.30
53.33
51.17
47.69
43.06
37.73
32.27
27.13
22.54
18.40
14.35
9.96
4.98
-0.55
-6.23
-11.51
-15.94
-19.45
-22.41
-25.51
-29.42
-34.54
-40.78
-47.61
-54.31
-60.24
-65.11
-69.05
-72.66
-76.82
-82.47
-90.25
-100.13
-111.13
-121.25
-127.89
-128.44
-121.15
-105.69
-83.33
-56.60
-28.61
-2.21
20.56
38.79
52.53
62.45
69.43
74.21
77.30
78.91
79.14
78.06
75.82
72.70
69.03
65.21
61.64
58.66
56.55
55.49
55.46
56.25
57.44
58.34
58.26
56.55
52.92
47.53
41.01
34.25
28.09
22.98
18.92
15.44
11.94
7.91
3.14
-2.21
-7.78
-13.15
-18.02
-22.32
-26.23
-30.16
-34.48
-39.40
-44.80
-50.32
-55.53
-60.15
-64.26
-68.23
-72.68
-78.20
-85.24
-93.90
-103.78
-113.79
-122.08
-126.37
-124.40
-114.74
-97.37
-73.86
-46.90
-19.59
5.44
26.59
43.33
55.97
65.18
71.61
75.75
77.91
78.29
77.14
74.80
71.67
68.20
64.77
61.67
59.09
57.14
55.87
55.31
55.36
55.80
56.24
56.14
55.00
52.43
48.39
43.19
37.43
31.81
26.87
22.76
19.25
15.86
12.08
7.63
2.58
-2.75
-7.89
-12.49
-16.39
-19.71
-22.80
-26.16
-30.24
-35.31
-41.31
-47.79
-54.07
-59.53
-63.87
-67.32
-70.56
-74.54
-80.16
-87.91
-97.64
-108.30
-118.04
-124.36
-124.74
-117.35
-101.69
-78.95
-51.71
-23.22
3.54
26.48
44.79
58.59
68.51
75.24
79.27
80.87
80.27
77.79
74.00
69.58
65.18
61.26
58.03
55.48
53.53
52.14
51.37
51.29
51.82
52.67
53.37
53.45
52.57
50.54
47.23
42.53
36.34
28.67
19.77
10.20
0.79
-7.67
-14.55
-19.70
-23.37
-26.15
-28.71
-31.63
-35.22
-39.45
-44.07
-48.71
-53.04
-56.92
-60.42
-63.88
-67.87
-73.01
-79.83
-88.31
-97.52
-105.56
-109.84
-107.87
-98.06
-80.41
-56.62
-29.56
-2.42
22.21
42.72
58.55
69.84
76.96
80.32
80.32
77.48
72.47
66.17
59.52
53.33
48.14
44.21
41.60
40.19
39.84
40.33
41.35
42.47
43.21
43.13
41.93
39.52
35.99
31.58
26.53
21.06
15.33
9.47
3.60
-2.12
-7.51
-12.46
-16.97
-21.17
-25.34
-29.83
-34.88
-40.50
-46.52
-52.57
-58.27
-63.44
-68.15
-72.75
-77.84
-84.10
-92.06
-101.71
-112.15
-121.42
-126.78
-125.45
-115.60
-97.08
-71.65
-42.39
-12.78
14.28
37.02
54.79
67.77
76.52
81.71
84.06
84.28
83.06
81.00
78.44
75.54
72.27
68.62
64.70
60.80
57.33
54.70
53.18
52.71
52.94
53.22
52.90
51.48
48.76
44.83
40.00
34.61
28.95
23.20
17.40
11.56
5.71
-0.06
-5.65
-10.98
-16.08
-21.15
-26.44
-32.15
-38.30
-44.64
-50.81
-56.45
-61.40
-65.80
-70.20
-75.34
-82.02
-90.73
-101.22
-112.26
-121.61
-126.49
-124.40
-113.93
-95.27
-70.31
-41.96
-13.38
12.76
34.79
52.01
64.55
72.98
78.09
80.65
81.29
80.45
78.44
75.51
71.93
68.00
64.08
60.48
57.40
54.96
53.22
52.16
51.68
51.59
51.48
50.87
49.30
46.56
42.73
38.19
33.36
28.52
23.72
18.79
13.55
7.95
2.22
-3.27
-8.21
-12.57
-16.66
-21.00
-26.06
-32.01
-38.61
-45.29
-51.37
-56.39
-60.33
-63.64
-67.21
-72.05
-78.95
-88.11
-98.81
-109.36
-117.26
-119.83
-114.98
-101.88
-81.37
-55.70
-27.95
-1.14
22.43
41.55
56.01
66.20
72.72
76.13
76.88
75.38
72.16
67.89
63.25
58.84
55.02
51.93
49.49
47.61
46.22
45.33
44.93
44.90
45.01
44.88
44.08
42.25
39.15
34.74
29.24
23.06
16.78
10.97
5.93
1.63
-2.35
-6.58
-11.51
-17.27
-23.57
-29.87
-35.58
-40.35
-44.23
-47.61
-51.14
-55.52
-61.39
-69.12
-78.59
-88.89
-98.30
-104.40
-104.71
-97.49
-82.41
-60.82
-35.39
-9.30
14.67
34.82
50.54
62.06
69.87
74.36
75.77
74.30
70.42
64.89
58.68
52.75
47.81
44.18
41.84
40.53
39.99
39.97
40.28
40.71
40.96
40.72
39.69
37.65
34.54
30.42
25.39
19.63
13.36
6.90
0.63
-5.12
-10.21
-14.78
-19.26
-24.14
-29.77
-36.15
-42.90
-49.43
-55.21
-60.01
-64.07
-68.01
-72.64
-78.74
-86.73
-96.48
-107.07
-116.75
-123.16
-123.77
-116.67
-101.23
-78.47
-50.93
-21.96
5.20
28.24
46.19
59.19
68.10
73.94
77.49
79.21
79.36
78.19
75.97
73.11
69.94
66.72
63.56
60.55
57.78
55.43
53.69
52.66
52.21
51.96
51.38
49.96
47.37
43.60
38.82
33.32
27.34
21.04
14.56
8.10
1.89
-3.83
-9.00
-13.72
-18.33
-23.21
-28.63
-34.65
-41.06
-47.52
-53.68
-59.36
-64.57
-69.52
-74.64
-80.47
-87.60
-96.25
-106.04
-115.55
-122.48
-124.10
-118.18
-103.82
-81.89
-54.90
-26.16
1.18
24.91
44.02
58.58
69.21
76.72
81.73
84.74
86.03
85.81
84.28
81.63
78.13
74.08
69.82
65.69
62.01
59.04
56.94
55.69
55.06
54.61
53.78
52.07
49.22
45.29
40.65
35.75
30.95
26.33
21.68
16.71
11.19
5.18
-1.01
-6.92
-12.24
-16.92
-21.27
-25.73
-30.70
-36.31
-42.39
-48.58
-54.46
-59.75
-64.44
-68.76
-73.23
-78.51
-85.22
-93.64
-103.34
-112.96
-120.18
-122.34
-117.17
-103.70
-82.62
-56.24
-27.72
-0.23
23.89
43.43
58.15
68.45
74.94
78.26
79.07
78.02
75.83
73.10
70.27
67.55
64.99
62.58
60.32
58.26
56.48
55.04
53.97
53.19
52.46
51.43
49.67
46.86
42.93
38.18
33.10
28.18
23.60
19.18
14.52
9.29
3.49
-2.50
-8.13
-12.98
-17.02
-20.61
-24.31
-28.65
-33.84
-39.72
-45.82
-51.61
-56.67
-60.95
-64.85
-69.09
-74.51
-81.77
-90.91
-101.08
-110.53
-116.79
-117.34
-110.36
-95.30
-73.26
-46.69
-18.78
7.46
29.85
47.41
60.18
68.79
74.05
76.63
76.98
75.49
72.59
68.78
64.61
60.55
56.85
53.61
50.80
48.46
46.74
45.83
45.85
46.64
47.68
48.27
47.72
45.68
42.22
37.81
33.02
28.30
23.79
19.36
14.76
9.79
4.49
-0.91
-6.07
-10.70
-14.71
-18.26
-21.76
-25.65
-30.24
-35.52
-41.11
-46.47
-51.06
-54.68
-57.49
-60.14
-63.47
-68.35
-75.32
-84.21
-93.93
-102.38
-106.94
-105.10
-95.39
-77.95
-54.60
-28.30
-2.21
21.14
40.29
54.80
64.86
70.87
73.20
72.23
68.50
62.81
56.18
49.65
44.09
39.99
37.37
35.91
35.17
34.81
34.72
34.93
35.49
36.26
36.85
36.75
35.46
32.77
28.75
23.76
18.30
12.91
8.05
3.97
0.66
-2.34
-5.76
-10.39
-16.70
-24.60
-33.44
-42.24
-50.10
-56.52
-61.55
-65.70
-69.72
-74.36
-80.18
-87.32
-95.33
-102.94
-108.19
-108.84
-102.97
-89.75
-69.75
-44.91
-18.04
7.98
30.86
49.26
62.82
71.85
76.96
78.80
77.94
74.96
70.40
64.93
59.19
53.76
49.07
45.33
42.60
40.81
39.81
39.39
39.33
39.33
39.10
38.34
36.82
34.47
31.30
27.46
23.12
18.46
13.51
8.31
2.91
-2.58
-7.97
-13.10
-18.00
-22.85
-27.96
-33.54
-39.53
-45.63
-51.41
-56.56
-61.03
-65.08
-69.26
-74.23
-80.60
-88.77
-98.63
-109.26
-118.76
-124.44
-123.58
-114.31
-96.41
-71.58
-42.91
-13.99
12.19
33.87
50.60
62.89
71.59
77.48
81.04
82.51
82.14
80.22
77.22
73.61
69.80
66.06
62.53
59.28
56.42
54.13
52.53
51.61
51.15
50.76
49.96
48.36
45.74
42.06
37.45
32.14
26.43
20.59
14.80
9.14
3.63
-1.76
-7.05
-12.21
-17.33
-22.53
-28.04
-33.98
-40.28
-46.60
-52.53
-57.71
-62.18
-66.40
-71.18
-77.46
-85.84
-96.21
-107.40
-117.27
-123.04
-122.10
-112.78
-95.07
-70.67
-42.57
-14.15
11.76
33.40
50.24
62.58
71.14
76.64
79.62
80.53
79.72
77.56
74.42
70.67
66.65
62.63
58.85
55.48
52.68
50.56
49.18
48.47
48.16
47.85
47.06
45.40
42.70
39.10
34.87
30.36
25.75
21.06
16.14
10.90
5.35
-0.26
-5.65
-10.65
-15.29
-19.88
-24.81
-30.38
-36.63
-43.24
-49.65
-55.27
-59.76
-63.19
-66.11
-69.44
-74.19
-81.13
-90.33
-100.90
-110.88
-117.61
-118.38
-111.24
-95.75
-73.18
-46.18
-18.06
8.13
30.30
47.56
60.03
68.42
73.49
75.84
75.82
73.71
69.95
65.19
60.19
55.62
51.92
49.18
47.25
45.91
45.01
44.55
44.52
44.81
45.15
45.06
44.02
41.64
37.73
32.39
26.06
19.35
12.95
7.40
2.87
-0.89
-4.46
-8.49
-13.42
-19.30
-25.73
-32.09
-37.76
-42.42
-46.12
-49.21
-52.32
-56.13
-61.29
-68.20
-76.83
-86.38
-95.25
-101.14
-101.69
-95.16
-81.09
-60.64
-36.28
-11.04
12.32
31.99
47.26
58.31
65.69
69.92
71.36
70.25
66.96
62.13
56.60
51.22
46.71
43.39
41.31
40.26
39.98
40.21
40.74
41.36
41.79
41.69
40.76
38.79
35.77
31.88
27.40
22.60
17.69
12.72
7.66
2.53
-2.60
-7.56
-12.24
-16.65
-20.97
-25.53
-30.58
-36.21
-42.20
-48.14
-53.54
-58.10
-61.88
-65.36
-69.34
-74.71
-82.14
-91.76
-102.79
-113.47
-121.26
-123.46
-117.97
-104.10
-82.86
-56.71
-28.88
-2.45
20.44
38.83
52.80
62.99
70.19
74.99
77.75
78.69
77.98
75.86
72.67
68.82
64.77
60.91
57.55
54.97
53.29
52.57
52.68
53.33
54.02
54.20
53.32
51.09
47.52
42.95
37.91
32.86
28.04
23.36
18.59
13.46
7.92
2.20
-3.30
-8.21
-12.45
-16.23
-20.07
-24.47
-29.69
-35.59
-41.75
-47.62
-52.81
-57.23
-61.16
-65.21
-70.08
-76.48
-84.78
-94.78
-105.42
-114.74
-120.19
-119.24
-110.28
-93.25
-69.81
-42.86
-15.71
8.91
29.43
45.48
57.56
66.47
72.90
77.23
79.61
80.15
79.04
76.61
73.28
69.49
65.60
61.92
58.68
56.09
54.32
53.51
53.57
54.18
54.75
54.55
52.92
49.57
44.73
39.05
33.35
28.27
24.04
20.38
16.76
12.63
7.75
2.23
-3.48
-8.91
-13.74
-17.96
-21.86
-25.84
-30.22
-35.11
-40.30
-45.43
-50.18
-54.37
-58.15
-61.89
-66.19
-71.68
-78.83
-87.71
-97.63
-107.00
-113.44
-114.39
-107.88
-93.37
-72.04
-46.54
-20.15
4.24
24.76
40.80
52.66
61.04
66.57
69.60
70.37
69.11
66.24
62.32
57.98
53.78
50.08
47.08
44.87
43.50
42.96
43.19
43.98
44.91
45.43
45.01
43.29
40.24
36.17
31.62
27.17
23.23
19.95
17.22
14.81
12.48
10.08
7.53
4.72
1.52
-2.30
-6.90
-12.24
-18.00
-23.67
-28.71
-32.77
-35.91
-38.62
-41.74
-46.22
-52.80
-61.78
-72.72
-84.36
-94.71
-101.38
-102.15
-95.62
-81.72
-61.82
-38.33
-14.11
8.38
27.50
42.53
53.42
60.42
63.79
63.82
60.91
55.73
49.25
42.54
36.57
31.98
28.98
27.42
26.99
27.36
28.24
29.43
30.69
31.65
31.84
30.81
28.25
24.21
19.06
13.41
7.83
2.71
-1.93
-6.39
-11.11
-16.45
-22.52
-29.05
-35.54
-41.40
-46.24
-50.05
-53.34
-56.92
-61.73
-68.44
-77.17
-87.23
-97.15
-104.77
-107.79
-104.29
-93.39
-75.65
-52.93
-28.00
-3.70
17.81
35.37
48.85
58.64
65.27
69.06
70.15
68.67
65.01
59.87
54.11
48.59
43.97
40.56
38.38
37.28
37.07
37.56
38.60
39.96
41.29
42.10
41.83
40.01
36.43
31.20
24.76
17.71
10.65
4.00
-2.08
-7.69
-13.13
-18.78
-24.88
-31.53
-38.54
-45.51
-52.01
-57.72
-62.58
-66.91
-71.37
-76.81
-84.02
-93.39
-104.58
-116.28
-126.32
-132.05
-131.05
-121.91
-104.67
-80.98
-53.57
-25.51
0.54
22.90
40.99
55.05
65.82
74.08
80.35
84.94
87.89
89.20
88.93
87.28
84.53
81.02
77.07
72.99
69.13
65.82
63.39
61.99
61.50
61.49
61.35
60.48
58.53
55.50
51.68
47.50
43.23
38.87
34.16
28.77
22.48
15.40
7.93
0.64
-5.97
-11.67
-16.61
-21.24
-26.12
-31.65
-37.95
-44.80
-51.79
-58.44
-64.45
-69.83
-74.91
-80.32
-86.79
-94.98
-105.02
-116.21
-126.87
-134.49
-136.32
-130.24
-115.48
-93.07
-65.54
-36.21
-8.21
16.32
36.48
52.43
64.88
74.58
82.04
87.49
91.05
92.82
92.98
91.69
89.14
85.53
81.11
76.29
71.59
67.56
64.68
63.11
62.78
63.23
63.84
63.89
62.84
60.37
56.53
51.62
46.15
40.57
35.27
30.36
25.73
21.10
16.17
10.78
5.01
-0.85
-6.38
-11.26
-15.50
-19.38
-23.42
-28.12
-33.70
-40.03
-46.70
-53.18
-59.04
-64.11
-68.55
-72.81
-77.62
-83.81
-92.07
-102.60
-114.64
-126.37
-135.08
-137.87
-132.58
-118.54
-96.90
-70.20
-41.61
-13.98
10.75
31.72
48.85
62.45
72.86
80.38
85.28
87.82
88.38
87.42
85.38
82.70
79.67
76.50
73.28
70.13
67.25
64.97
63.66
63.47
64.20
65.26
65.78
64.92
62.27
57.90
52.41
46.63
41.32
36.98
33.77
31.45
29.54
27.26
23.78
18.37
10.67
0.86
-10.37
-22.04
-33.29
-43.60
-52.88
-61.25
-68.73
-75.09
-79.92
-82.87
-83.97
-83.80
-83.36
-83.83
-86.30
-91.43
-99.19
-108.64
-117.88
-124.31
-125.22
-118.57
-103.73
-81.76
-55.09
-26.84
0.09
23.66
42.87
57.62
68.32
75.56
79.93
81.89
81.88
80.31
77.64
74.30
70.71
67.13
63.69
60.47
57.59
55.30
53.89
53.52
54.05
54.90
55.29
54.39
51.78
47.51
42.11
36.32
30.81
25.92
21.64
17.64
13.50
8.92
3.90
-1.30
-6.28
-10.74
-14.69
-18.46
-22.52
-27.25
-32.71
-38.56
-44.24
-49.27
-53.43
-56.93
-60.33
-64.37
-69.76
-76.90
-85.66
-95.22
-103.99
-109.90
-110.72
-104.83
-91.65
-72.00
-47.91
-22.11
2.68
24.39
41.88
54.96
64.02
69.73
72.68
73.31
71.98
69.03
64.95
60.33
55.79
51.85
48.79
46.61
45.17
44.29
43.85
43.88
44.37
45.14
45.73
45.52
43.89
40.56
35.71
29.98
24.16
18.86
14.26
10.07
5.75
0.88
-4.60
-10.32
-15.75
-20.48
-24.51
-28.23
-32.23
-36.94
-42.41
-48.30
-54.05
-59.15
-63.42
-67.03
-70.46
-74.37
-79.42
-86.17
-94.80
-104.82
-114.84
-122.58
-125.31
-120.68
-107.59
-86.73
-60.47
-32.17
-5.15
18.21
36.86
50.90
61.09
68.26
73.04
75.80
76.75
76.14
74.27
71.55
68.34
64.95
61.63
58.56
55.92
53.86
52.54
52.03
52.23
52.86
53.44
53.39
52.19
49.55
45.49
40.40
34.84
29.42
24.54
20.29
16.41
12.39
7.77
2.32
-3.77
-9.99
-15.72
-20.50
-24.34
-27.64
-31.06
-35.17
-40.22
-46.01
-52.02
-57.71
-62.76
-67.22
-71.54
-76.45
-82.70
-90.82
-100.71
-111.44
-121.11
-127.16
-127.05
-119.02
-102.79
-79.74
-52.56
-24.43
1.82
24.27
42.17
55.60
65.16
71.52
75.28
76.92
76.87
75.49
73.14
70.11
66.67
63.02
59.38
56.00
53.19
51.24
50.32
50.38
51.08
51.82
51.91
50.72
47.99
43.86
38.85
33.65
28.78
24.47
20.47
16.30
11.52
5.98
-0.08
-6.14
-11.71
-16.56
-20.82
-24.93
-29.38
-34.46
-40.11
-45.96
-51.48
-56.25
-60.20
-63.62
-67.19
-71.78
-78.12
-86.51
-96.52
-106.81
-115.26
-119.38
-116.94
-106.73
-88.99
-65.48
-38.96
-12.42
11.65
31.82
47.69
59.57
67.97
73.29
75.76
75.58
73.08
68.90
63.83
58.72
54.22
50.77
48.49
47.33
47.07
47.44
48.11
48.71
48.90
48.35
46.80
44.10
40.25
35.44
29.98
24.26
18.59
13.16
7.96
2.89
-2.18
-7.31
-12.51
-17.79
-23.16
-28.63
-34.18
-39.71
-45.04
-50.01
-54.55
-58.93
-63.64
-69.41
-76.85
-86.14
-96.73
-107.24
-115.59
-119.48
-116.94
-106.89
-89.45
-65.98
-38.77
-10.48
16.47
40.28
60.02
75.47
86.82
94.37
98.35
98.93
96.42
91.49
85.14
78.65
73.21
69.55
67.80
67.42
67.51
67.11
65.54
62.53
58.22
52.94
47.03
40.73
34.13
27.32
20.41
13.63
7.19
1.25
-4.11
-8.92
-13.28
-17.39
-21.49
-25.84
-30.69
-36.13
-42.05
-48.11
-53.86
-58.95
-63.28
-67.13
-71.14
-76.15
-82.97
-92.03
-103.08
-114.84
-125.16
-131.29
-130.68
-121.76
-104.52
-80.62
-52.90
-24.59
1.60
23.97
41.98
55.92
66.49
74.43
80.21
84.07
86.08
86.28
84.82
81.98
78.21
74.08
70.10
66.73
64.20
62.59
61.81
61.60
61.59
61.31
60.23
57.91
54.10
48.82
42.38
35.28
28.11
21.34
15.26
9.85
4.91
0.05
-5.10
-10.82
-17.19
-24.05
-31.11
-38.00
-44.36
-50.02
-54.97
-59.49
-64.11
-69.53
-76.50
-85.48
-96.29
-107.85
-118.12
-124.56
-124.70
-117.05
-101.54
-79.64
-53.91
-27.28
-2.22
19.69
37.82
52.27
63.49
71.92
77.94
81.77
83.62
83.69
82.24
79.54
75.87
71.54
66.88
62.26
58.12
54.82
52.64
51.56
51.20
50.84
49.64
46.92
42.41
36.38
29.50
22.57
16.12
10.28
4.79
-0.83
-7.02
-13.91
-21.29
-28.71
-35.65
-41.75
-47.00
-51.77
-56.78
-62.84
-70.60
-80.14
-90.76
-100.93
-108.50
-111.25
-107.50
-96.63
-79.29
-57.30
-33.07
-9.04
12.92
31.79
47.34
59.82
69.61
76.93
81.77
84.02
83.63
80.85
76.30
70.83
65.36
60.59
56.92
54.39
52.84
52.02
51.64
51.44
51.07
50.16
48.28
45.11
40.50
34.58
27.73
20.47
13.34
6.75
0.87
-4.37
-9.23
-14.08
-19.25
-24.95
-31.12
-37.48
-43.62
-49.16
-53.90
-57.96
-61.73
-65.84
-70.94
-77.64
-86.26
-96.54
-107.53
-117.44
-123.93
-124.67
-118.05
-103.77
-82.97
-57.95
-31.47
-6.00
16.75
36.02
51.74
64.20
73.73
80.50
84.53
85.86
84.65
81.33
76.61
71.32
66.28
62.04
58.88
56.79
55.61
55.09
54.93
54.82
54.37
53.25
51.14
47.85
43.38
37.88
31.67
25.14
18.73
12.85
7.75
3.43
-0.33
-3.99
-8.00
-12.72
-18.19
-24.17
-30.23
-35.92
-40.99
-45.33
-49.09
-52.63
-56.47
-61.34
-67.94
-76.62
-86.94
-97.45
-105.75
-109.17
-105.60
-94.27
-76.09
-53.31
-28.81
-5.17
15.84
33.42
47.48
58.23
65.91
70.63
72.46
71.63
68.58
64.05
58.94
54.14
50.28
47.64
46.16
45.58
45.57
45.92
46.45
46.96
47.09
46.40
44.49
41.26
36.94
32.11
27.36
23.06
19.19
15.38
11.09
5.94
-0.07
-6.57
-12.91
-18.52
-23.12
-26.85
-30.20
-33.78
-38.07
-43.24
-49.09
-55.15
-60.94
-66.10
-70.54
-74.56
-78.76
-83.93
-90.84
-99.80
-110.23
-120.51
-128.06
-130.03
-124.16
-109.70
-87.70
-60.74
-32.16
-4.98
18.74
38.18
53.47
65.21
73.99
80.23
84.16
85.99
85.97
84.44
81.79
78.44
74.72
70.92
67.27
63.91
61.03
58.86
57.57
57.20
57.49
57.85
57.49
55.70
52.09
46.84
40.59
34.21
28.41
23.49
19.28
15.32
11.07
6.20
0.70
-5.17
-10.97
-16.28
-20.86
-24.75
-28.26
-31.89
-36.14
-41.24
-47.08
-53.19
-58.96
-63.93
-67.98
-71.53
-75.39
-80.53
-87.69
-97.00
-107.67
-117.87
-125.03
-126.43
-120.03
-105.19
-82.96
-55.87
-27.09
0.37
24.41
44.00
59.05
69.99
77.48
82.13
84.44
84.85
83.70
81.25
77.77
73.53
68.88
64.22
59.93
56.30
53.55
51.78
51.00
51.04
51.56
52.01
51.71
50.01
46.60
41.65
35.72
29.68
24.27
19.84
16.18
12.74
8.82
4.02
-1.60
-7.55
-13.14
-17.85
-21.54
-24.56
-27.53
-31.13
-35.80
-41.56
-48.04
-54.59
-60.51
-65.33
-68.96
-71.80
-74.71
-78.75
-84.83
-93.31
-103.58
-113.92
-121.72
-124.13
-118.91
-105.20
-83.88
-57.34
-28.75
-1.17
23.12
42.96
58.14
69.12
76.55
81.03
82.99
82.70
80.48
76.65
71.70
66.23
60.84
56.11
52.42
50.00
48.91
49.06
50.10
51.51
52.57
52.55
50.96
47.73
43.25
38.20
33.25
28.79
24.75
20.76
16.30
11.05
5.06
-1.29
-7.45
-12.96
-17.64
-21.64
-25.37
-29.27
-33.65
-38.54
-43.73
-48.87
-53.66
-57.96
-61.91
-65.90
-70.53
-76.46
-84.13
-93.43
-103.35
-111.88
-116.33
-114.06
-103.39
-84.40
-58.96
-30.29
-1.87
23.50
44.24
59.98
71.08
78.08
81.45
81.58
78.97
74.34
68.62
62.72
57.32
52.77
49.16
46.45
44.61
43.69
43.74
44.72
46.35
48.08
49.23
49.09
47.21
43.50
38.29
32.23
26.05
20.38
15.53
11.39
7.58
3.59
-0.91
-5.95
-11.21
-16.20
-20.48
-23.97
-26.94
-29.96
-33.63
-38.34
-44.05
-50.37
-56.71
-62.49
-67.41
-71.50
-75.16
-79.13
-84.26
-91.28
-100.34
-110.69
-120.45
-126.86
-126.97
-118.59
-101.11
-75.87
-45.84
-14.74
14.05
38.24
56.89
70.24
79.11
84.48
87.14
87.65
86.45
83.91
80.41
76.35
72.08
67.86
63.83
60.11
56.82
54.18
52.47
51.92
52.47
53.73
54.97
55.33
54.14
51.09
46.37
40.51
34.21
28.08
22.56
17.76
13.55
9.57
5.42
0.77
-4.44
-9.93
-15.28
-20.01
-23.94
-27.23
-30.37
-33.94
-38.38
-43.77
-49.79
-55.84
-61.32
-65.83
-69.35
-72.34
-75.60
-80.12
-86.73
-95.66
-106.21
-116.52
-123.81
-125.03
-117.84
-101.42
-76.98
-47.43
-16.59
11.93
35.64
53.45
65.58
72.96
76.75
77.87
77.03
74.71
71.35
67.40
63.28
59.35
55.86
52.96
50.71
49.16
48.37
48.36
49.11
50.38
51.75
52.59
52.32
50.53
47.18
42.66
37.62
32.71
28.32
24.46
20.75
16.72
12.02
6.65
1.00
-4.36
-8.95
-12.59
-15.52
-18.28
-21.50
-25.62
-30.68
-36.31
-41.93
-46.90
-50.88
-53.98
-56.76
-60.07
-64.79
-71.50
-80.11
-89.65
-98.23
-103.41
-102.74
-94.56
-78.62
-56.23
-29.98
-2.99
21.94
42.90
59.06
70.39
77.23
79.99
79.05
74.86
68.15
59.95
51.47
43.81
37.70
33.39
30.71
29.32
28.91
29.33
30.45
32.06
33.77
34.99
35.12
33.79
30.96
26.94
22.28
17.50
12.96
8.74
4.68
0.47
-4.18
-9.41
-15.11
-20.90
-26.29
-30.82
-34.26
-36.73
-38.75
-41.07
-44.52
-49.74
-56.89
-65.44
-74.06
-80.79
-83.46
-80.29
-70.47
-54.48
-34.01
-11.48
10.49
29.78
45.09
55.90
62.34
64.84
63.94
60.16
54.04
46.22
37.45
28.66
20.73
14.45
10.23
8.10
7.74
8.63
10.21
11.96
13.43
14.23
14.00
12.50
9.65
5.56
0.51
-5.14
-11.06
-17.01
-22.77
-28.19
-33.23
-37.94
-42.53
-47.24
-52.32
-57.92
-64.16
-71.10
-78.67
-86.41
-93.27
-97.59
-97.42
-91.15
-78.19
-59.32
-36.50
-12.31
10.82
31.14
47.74
60.33
68.89
73.41
73.90
70.54
63.89
54.99
45.17
35.82
28.06
22.48
19.12
17.61
17.37
17.86
18.71
19.67
20.57
21.16
21.04
19.78
17.02
12.60
6.71
-0.16
-7.39
-14.39
-20.78
-26.50
-31.75
-36.98
-42.72
-49.53
-57.85
-67.82
-79.02
-90.23
-99.50
-104.43
-102.84
-93.54
-76.78
-54.35
-29.01
-3.67
19.34
38.72
54.13
65.77
73.95
78.90
80.72
79.60
75.98
70.50
63.92
56.97
50.28
44.35
39.57
36.27
34.63
34.59
35.78
37.52
38.93
39.12
37.37
33.41
27.41
20.02
12.14
4.56
-2.21
-8.21
-13.88
-19.86
-26.61
-34.24
-42.40
-50.51
-57.98
-64.49
-70.16
-75.54
-81.48
-88.92
-98.51
-110.18
-122.72
-133.78
-140.21
-139.04
-128.37
-108.25
-80.68
-49.04
-17.04
12.23
36.91
56.43
71.05
81.57
88.84
93.70
96.80
98.61
99.31
98.87
97.16
94.07
89.78
84.69
79.47
74.78
71.18
68.94
67.92
67.69
67.55
66.82
64.96
61.74
57.28
51.89
45.95
39.69
33.22
26.51
19.51
12.26
4.95
-2.11
-8.56
-14.18
-19.07
-23.61
-28.39
-33.95
-40.51
-47.84
-55.40
-62.50
-68.67
-73.91
-78.71
-84.00
-90.86
-100.09
-111.80
-124.91
-137.08
-145.08
-145.63
-136.43
-117.12
-89.41
-56.68
-22.93
8.33
34.80
55.61
71.06
82.01
89.53
94.52
97.63
99.25
99.62
98.80
96.84
93.79
89.82
85.21
80.33
75.67
71.73
68.90
67.40
67.11
67.65
68.38
68.59
67.69
65.31
61.39
56.15
50.03
43.49
37.02
30.94
25.38
20.24
15.32
10.33
5.13
-0.32
-5.81
-11.07
-15.90
-20.28
-24.46
-28.92
-34.12
-40.28
-47.27
-54.59
-61.58
-67.69
-72.70
-76.84
-80.68
-85.11
-91.02
-99.11
-109.53
-121.56
-133.34
-142.12
-144.81
-138.91
-123.43
-99.32
-69.32
-37.06
-6.12
20.89
42.71
59.28
71.36
79.96
85.98
90.10
92.69
93.87
93.65
92.00
88.88
84.42
78.91
72.90
67.08
62.19
58.81
57.20
57.18
58.18
59.40
59.97
59.20
56.71
52.54
47.08
41.01
34.99
29.50
24.64
20.14
15.50
10.26
4.21
-2.51
-9.45
-16.08
-21.94
-26.86
-31.01
-34.81
-38.83
-43.49
-48.99
-55.13
-61.43
-67.36
-72.58
-77.14
-81.55
-86.63
-93.29
-102.10
-112.99
-124.91
-135.82
-142.94
-143.50
-135.56
-118.75
-94.52
-65.71
-35.72
-7.49
17.14
37.59
54.12
67.37
77.80
85.60
90.82
93.56
94.16
93.12
91.00
88.18
84.86
81.16
77.21
73.31
69.94
67.53
66.31
66.10
66.39
66.42
65.49
63.05
58.92
53.23
46.37
38.92
31.45
24.42
18.00
12.15
6.63
1.21
-4.12
-9.22
-13.80
-17.68
-20.93
-23.91
-27.17
-31.20
-36.17
-41.88
-47.81
-53.26
-57.75
-61.16
-63.82
-66.48
-70.09
-75.53
-83.21
-92.78
-102.93
-111.51
-115.89
-113.72
-103.60
-85.63
-61.51
-34.06
-6.47
18.55
39.24
55.00
66.09
73.23
77.20
78.66
78.12
75.99
72.64
68.44
63.77
58.98
54.37
50.22
46.72
44.10
42.47
41.95
42.46
43.70
45.12
46.02
45.68
43.70
40.11
35.39
30.26
25.38
21.07
17.19
13.30
8.96
4.00
-1.37
-6.67
-11.37
-15.23
-18.41
-21.39
-24.77
-28.96
-33.95
-39.34
-44.52
-48.97
-52.51
-55.38
-58.16
-61.53
-66.14
-72.38
-80.22
-89.05
-97.53
-103.64
-105.04
-99.68
-86.51
-66.00
-40.13
-11.95
15.34
39.16
58.05
71.68
80.50
85.20
86.40
84.53
79.98
73.28
65.18
56.61
48.46
41.40
35.78
31.65
28.98
27.74
27.89
29.30
31.60
34.15
36.09
36.58
35.11
31.65
26.67
21.02
15.59
11.01
7.41
4.42
1.37
-2.33
-6.96
-12.30
-17.76
-22.67
-26.63
-29.68
-32.30
-35.15
-38.76
-43.33
-48.60
-54.06
-59.15
-63.52
-67.17
-70.49
-74.12
-78.84
-85.28
-93.60
-103.23
-112.58
-119.25
-120.44
-113.85
-98.51
-75.33
-46.86
-16.64
11.85
36.09
54.93
68.38
77.20
82.26
84.23
83.58
80.74
76.22
70.74
65.07
59.77
55.20
51.38
48.21
45.62
43.71
42.67
42.64
43.48
44.70
45.55
45.26
43.34
39.78
34.99
29.64
24.37
19.53
15.10
10.78
6.12
0.85
-5.06
-11.30
-17.34
-22.63
-26.90
-30.29
-33.31
-36.73
-41.17
-46.86
-53.40
-59.91
-65.29
-68.69
-69.92
-69.55
-68.80
-69.11
-71.77
-77.29
-85.13
-93.57
-99.97
-101.41
-95.50
-81.22
-59.32
-32.23
-3.33
23.92
46.93
64.41
76.23
83.11
85.95
85.61
82.74
77.92
71.79
65.11
58.63
52.97
48.44
45.03
42.55
40.76
39.54
38.88
38.84
39.36
40.16
40.73
40.50
39.07
36.24
32.20
27.29
21.93
16.43
10.98
5.65
0.53
-4.27
-8.61
-12.42
-15.82
-19.07
-22.52
-26.43
-30.88
-35.69
-40.48
-44.91
-48.72
-51.99
-55.08
-58.64
-63.42
-69.95
-78.19
-87.21
-95.08
-99.35
-97.58
-88.30
-71.48
-48.69
-22.63
3.66
27.60
47.50
62.65
72.96
78.69
80.12
77.64
71.87
63.76
54.59
45.75
38.41
33.25
30.35
29.37
29.74
30.93
32.54
34.26
35.77
36.74
36.83
35.85
33.81
30.84
27.13
22.81
17.91
12.48
6.66
0.69
-5.14
-10.59
-15.62
-20.34
-24.95
-29.66
-34.57
-39.67
-44.83
-49.85
-54.58
-58.94
-63.06
-67.26
-72.11
-78.20
-85.94
-95.21
-105.08
-113.68
-118.50
-117.01
-107.51
-89.77
-65.31
-36.97
-8.11
18.32
40.45
57.58
69.92
78.08
82.73
84.37
83.48
80.55
76.17
71.00
65.65
60.65
56.36
52.99
50.63
49.28
48.86
49.17
49.92
50.67
50.93
50.23
48.31
45.21
41.19
36.61
31.74
26.68
21.37
15.76
9.89
3.98
-1.71
-7.00
-11.91
-16.65
-21.50
-26.70
-32.33
-38.29
-44.27
-49.90
-54.89
-59.13
-62.82
-66.49
-70.97
-77.06
-85.25
-95.39
-106.39
-116.24
-122.34
-122.08
-113.65
-96.67
-72.47
-43.78
-14.02
13.68
37.13
55.39
68.60
77.47
82.81
85.30
85.44
83.65
80.38
76.13
71.35
66.45
61.73
57.45
53.89
51.34
50.02
49.93
50.80
52.08
53.05
53.04
51.57
48.60
44.43
39.56
34.50
29.58
24.87
20.19
15.30
10.06
4.49
-1.19
-6.65
-11.63
-16.04
-20.04
-23.96
-28.18
-32.92
-38.12
-43.44
-48.40
-52.67
-56.29
-59.78
-63.94
-69.57
-77.21
-86.71
-97.08
-106.52
-112.66
-113.06
-105.95
-90.80
-68.68
-42.06
-14.10
12.17
34.58
52.12
64.76
73.01
77.48
78.70
77.08
73.14
67.57
61.22
55.02
49.71
45.71
43.10
41.71
41.23
41.39
42.00
42.88
43.79
44.37
44.23
43.02
40.56
36.88
32.16
26.67
20.71
14.61
8.71
3.24
-1.71
-6.28
-10.80
-15.60
-20.93
-26.78
-32.89
-38.91
-44.48
-49.38
-53.60
-57.39
-61.27
-65.94
-72.11
-80.19
-89.91
-100.08
-108.62
-112.94
-110.67
-100.41
-82.29
-58.03
-30.49
-2.88
22.04
42.57
58.17
69.17
76.29
80.25
81.57
80.61
77.77
73.54
68.52
63.29
58.35
54.00
50.48
47.91
46.37
45.84
46.16
46.97
47.75
47.94
47.06
44.86
41.37
36.88
31.86
26.73
21.72
16.85
11.97
6.88
1.57
-3.84
-9.14
-14.16
-18.98
-23.83
-28.97
-34.56
-40.51
-46.48
-52.05
-56.93
-61.03
-64.63
-68.28
-72.74
-78.80
-86.95
-97.01
-107.88
-117.48
-123.06
-121.96
-112.47
-94.50
-69.75
-41.25
-12.45
13.73
35.49
52.32
64.61
73.13
78.59
81.49
82.18
81.00
78.36
74.77
70.73
66.56
62.51
58.76
55.50
52.95
51.32
50.63
50.68
50.99
50.93
49.97
47.81
44.53
40.52
36.28
32.19
28.30
24.34
19.88
14.59
8.48
1.92
-4.52
-10.31
-15.24
-19.50
-23.56
-27.91
-32.88
-38.45
-44.35
-50.11
-55.32
-59.81
-63.73
-67.62
-72.26
-78.45
-86.59
-96.34
-106.35
-114.41
-117.85
-114.37
-102.75
-83.43
-58.37
-30.56
-3.18
21.23
41.23
56.48
67.37
74.58
78.73
80.27
79.55
76.98
73.10
68.50
63.80
59.47
55.74
52.71
50.31
48.50
47.30
46.75
46.83
47.38
47.96
47.95
46.76
44.04
39.89
34.87
29.68
24.96
20.87
17.14
13.21
8.59
3.11
-2.94
-8.95
-14.26
-18.49
-21.70
-24.37
-27.21
-30.84
-35.55
-41.18
-47.24
-53.12
-58.30
-62.64
-66.37
-70.09
-74.55
-80.49
-88.31
-97.70
-107.41
-115.20
-118.31
-114.26
-101.69
-81.03
-54.43
-25.23
3.09
27.81
47.47
61.82
71.38
77.00
79.44
79.30
77.14
73.49
68.93
64.04
59.28
54.96
51.23
48.15
45.78
44.20
43.51
43.72
44.69
45.98
46.98
47.01
45.52
42.35
37.76
32.40
26.97
22.05
17.82
14.06
10.30
6.11
1.30
-3.98
-9.29
-14.20
-18.44
-22.12
-25.68
-29.62
-34.35
-39.87
-45.78
-51.43
-56.23
-59.90
-62.69
-65.33
-68.81
-74.10
-81.66
-91.20
-101.43
-110.09
-114.46
-111.98
-101.17
-82.17
-56.87
-28.42
-0.31
24.60
44.62
59.36
69.30
75.28
78.07
78.25
76.34
72.91
68.60
64.04
59.68
55.79
52.42
49.62
47.47
46.13
45.71
46.14
47.19
48.36
49.08
48.81
47.18
44.14
39.96
35.16
30.28
25.71
21.43
17.02
11.93
5.76
-1.43
-9.09
-16.36
-22.47
-27.11
-30.57
-33.60
-36.98
-41.22
-46.23
-51.42
-56.05
-59.57
-61.97
-63.78
-65.94
-69.42
-74.95
-82.69
-92.12
-101.87
-109.80
-113.37
-110.22
-98.97
-79.82
-54.66
-26.59
1.03
25.50
45.31
60.12
70.34
76.59
79.44
79.35
76.75
72.24
66.57
60.49
54.69
49.66
45.65
42.73
40.81
39.70
39.22
39.22
39.53
39.94
40.11
39.65
38.17
35.48
31.60
26.83
21.56
16.23
11.15
6.47
2.19
-1.83
-5.83
-10.10
-14.86
-20.19
-25.91
-31.61
-36.86
-41.27
-44.72
-47.45
-50.07
-53.41
-58.28
-65.23
-74.17
-84.18
-93.49
-99.77
-100.70
-94.58
-80.94
-60.77
-36.29
-10.44
13.92
34.64
50.59
61.66
68.36
71.43
71.53
69.17
64.82
59.10
52.77
46.67
41.47
37.56
34.97
33.55
33.05
33.24
33.91
34.80
35.67
36.21
36.17
35.35
33.60
30.83
26.98
22.13
16.47
10.37
4.31
-1.28
-6.10
-10.12
-13.59
-17.02
-20.91
-25.66
-31.29
-37.51
-43.82
-49.69
-54.78
-59.05
-62.74
-66.33
-70.48
-75.91
-83.16
-92.23
-102.18
-111.02
-115.93
-114.19
-104.00
-85.34
-60.03
-31.25
-2.56
23.07
43.81
59.13
69.41
75.52
78.38
78.82
77.48
74.90
71.54
67.78
63.91
60.08
56.38
52.92
49.87
47.48
46.07
45.80
46.55
47.85
48.97
49.18
47.94
45.08
40.84
35.75
30.37
25.09
20.06
15.17
10.20
5.02
-0.29
-5.50
-10.30
-14.57
-18.43
-22.24
-26.41
-31.14
-36.40
-41.84
-47.08
-51.88
-56.26
-60.55
-65.27
-71.05
-78.46
-87.70
-98.42
-109.42
-118.60
-123.34
-121.15
-110.55
-91.71
-66.49
-38.00
-9.61
15.90
36.88
52.88
64.27
71.79
76.14
77.90
77.58
75.70
72.82
69.50
66.20
63.15
60.44
58.03
55.90
54.10
52.80
52.16
52.23
52.80
53.41
53.42
52.22
49.47
45.27
40.10
34.63
29.44
24.70
20.22
15.51
10.26
4.45
-1.51
-7.08
-11.82
-15.73
-19.25
-22.98
-27.48
-32.90
-39.00
-45.22
-50.96
-55.82
-59.79
-63.24
-66.85
-71.45
-77.73
-86.00
-95.87
-106.03
-114.30
-118.07
-115.03
-103.89
-84.97
-60.21
-32.62
-5.42
18.82
38.66
53.77
64.58
71.79
76.01
77.72
77.27
75.08
71.71
67.77
63.83
60.25
57.19
54.65
52.60
51.09
50.26
50.22
50.85
51.75
52.27
51.72
49.65
46.00
41.21
35.95
30.89
26.46
22.65
19.08
15.19
10.53
4.98
-1.10
-7.06
-12.28
-16.45
-19.76
-22.85
-26.45
-31.01
-36.57
-42.69
-48.74
-54.23
-58.96
-63.14
-67.27
-72.02
-78.05
-85.77
-95.06
-104.91
-113.48
-118.23
-116.67
-107.15
-89.55
-65.42
-37.60
-9.36
16.46
38.08
54.82
66.90
74.87
79.33
80.74
79.57
76.40
72.02
67.32
63.03
59.58
56.92
54.75
52.74
50.73
48.88
47.52
46.91
47.01
47.42
47.49
46.61
44.42
41.00
36.79
32.33
28.00
23.82
19.54
14.80
9.46
3.75
-1.86
-6.84
-10.86
-14.04
-16.83
-19.85
-23.65
-28.46
-34.11
-40.10
-45.73
-50.41
-53.88
-56.34
-58.46
-61.23
-65.62
-72.28
-81.18
-91.38
-101.06
-107.72
-108.84
-102.55
-88.32
-67.23
-41.65
-14.68
10.83
32.78
50.15
62.81
71.16
75.83
77.41
76.46
73.50
69.12
63.96
58.68
53.88
50.00
47.21
45.41
44.38
43.87
43.74
43.94
44.39
44.83
44.82
43.85
41.55
38.00
33.56
28.81
24.24
20.04
16.08
12.05
7.66
2.86
-2.15
-7.06
-11.60
-15.67
-19.49
-23.44
-27.91
-33.11
-38.95
-45.04
-50.92
-56.16
-60.60
-64.38
-67.92
-71.82
-76.78
-83.40
-91.91
-101.86
-111.78
-119.32
-121.66
-116.37
-102.37
-80.41
-53.01
-23.68
4.10
27.82
46.32
59.64
68.51
73.84
76.34
76.55
74.86
71.72
67.61
63.01
58.34
53.89
49.89
46.51
43.96
42.45
42.10
42.86
44.40
46.08
47.07
46.60
44.26
40.15
34.90
29.40
24.40
20.22
16.64
13.18
9.36
5.16
0.93
-2.79
-5.73
-8.07
-10.43
-13.55
-17.87
-23.25
-29.14
-34.83
-39.81
-44.01
-47.82
-51.79
-56.56
-62.58
-70.09
-78.92
-88.32
-96.79
-102.17
-102.13
-94.89
-80.00
-58.60
-33.25
-7.10
16.99
37.20
52.85
64.17
71.70
75.93
77.18
75.71
72.00
66.81
61.04
55.52
50.73
46.79
43.54
40.80
38.54
36.95
36.26
36.55
37.61
38.88
39.60
39.11
37.06
33.56
29.09
24.31
19.77
15.70
11.94
8.11
3.82
-1.08
-6.40
-11.73
-16.66
-20.96
-24.72
-28.32
-32.22
-36.77
-42.02
-47.68
-53.28
-58.32
-62.50
-65.87
-68.89
-72.26
-76.82
-83.24
-91.73
-101.74
-111.70
-119.15
-121.29
-115.75
-101.51
-79.41
-52.05
-23.00
4.27
27.34
45.25
58.23
67.17
72.96
76.18
77.21
76.37
74.13
71.10
67.87
64.86
62.16
59.69
57.32
55.00
52.93
51.35
50.51
50.44
50.87
51.28
51.05
49.60
46.68
42.42
37.29
32.00
27.17
23.15
19.89
16.97
13.79
9.83
4.93
-0.67
-6.39
-11.60
-15.89
-19.31
-22.29
-25.45
-29.34
-34.17
-39.84
-45.95
-52.03
-57.63
-62.47
-66.53
-70.05
-73.66
-78.20
-84.50
-92.93
-102.97
-112.96
-120.30
-122.04
-115.89
-101.00
-78.42
-50.85
-21.78
5.45
28.55
46.53
59.55
68.34
73.69
76.25
76.48
74.86
72.00
68.53
65.00
61.71
58.70
55.85
53.10
50.49
48.28
46.79
46.21
46.46
47.20
47.80
47.65
46.31
43.70
40.07
35.88
31.55
27.30
23.10
18.78
14.18
9.32
4.35
-0.45
-4.87
-8.81
-12.37
-15.82
-19.56
-23.91
-28.97
-34.52
-40.05
-44.91
-48.65
-51.24
-53.19
-55.40
-58.89
-64.47
-72.39
-82.06
-91.96
-99.83
-103.03
-99.34
-87.68
-68.60
-44.28
-17.87
7.45
29.25
46.33
58.57
66.50
70.82
72.10
70.84
67.52
62.74
57.26
51.79
46.89
42.91
39.97
38.06
37.12
37.07
37.81
39.12
40.60
41.74
41.97
40.89
38.39
34.64
30.03
24.97
19.79
14.65
9.62
4.75
0.13
-4.18
-8.16
-11.90
-15.64
-19.67
-24.30
-29.68
-35.76
-42.22
-48.56
-54.26
-58.98
-62.69
-65.77
-68.93
-73.04
-78.92
-87.04
-97.16
-108.07
-117.51
-122.57
-120.48
-109.59
-90.09
-64.08
-34.95
-6.31
18.99
39.39
54.59
65.08
71.72
75.34
76.64
76.24
74.66
72.35
69.65
66.77
63.82
60.80
57.74
54.68
51.83
49.50
48.00
47.47
47.67
48.04
47.81
46.34
43.42
39.22
34.26
29.04
23.92
18.97
14.12
9.27
4.41
-0.35
-4.89
-9.10
-13.05
-16.99
-21.24
-26.11
-31.73
-37.93
-44.23
-50.06
-54.97
-58.83
-62.03
-65.32
-69.69
-76.00
-84.63
-95.15
-106.13
-115.23
-119.65
-116.98
-105.94
-87.03
-62.39
-35.21
-8.71
14.65
33.64
48.14
58.69
66.03
70.81
73.51
74.48
74.00
72.34
69.75
66.51
62.91
59.30
56.00
53.29
51.38
50.37
50.23
50.79
51.69
52.39
52.31
50.99
48.26
44.31
39.57
34.54
29.55
24.68
19.81
14.78
9.50
4.09
-1.22
-6.19
-10.78
-15.15
-19.63
-24.54
-30.06
-36.10
-42.29
-48.22
-53.50
-58.03
-62.07
-66.17
-71.12
-77.65
-86.11
-96.22
-106.75
-115.65
-120.35
-118.57
-109.01
-91.92
-69.07
-43.25
-17.44
5.98
25.64
41.23
53.10
61.85
67.99
71.84
73.60
73.46
71.79
69.01
65.60
62.00
58.56
55.53
53.10
51.43
50.60
50.55
51.06
51.71
51.99
51.45
49.80
47.03
43.31
38.97
34.30
29.54
24.79
20.03
15.19
10.20
5.09
-0.05
-5.06
-9.83
-14.34
-18.73
-23.19
-27.88
-32.77
-37.68
-42.34
-46.58
-50.49
-54.43
-59.00
-64.82
-72.30
-81.41
-91.44
-100.89
-107.65
-109.42
-104.45
-92.12
-73.27
-50.01
-25.06
-1.01
20.31
37.99
51.86
62.11
69.00
72.70
73.42
71.56
67.79
62.99
58.07
53.78
50.52
48.43
47.37
47.13
47.56
48.46
49.56
50.47
50.70
49.78
47.44
43.77
39.09
33.87
28.47
23.04
17.55
11.88
6.00
0.07
-5.61
-10.82
-15.49
-19.88
-24.36
-29.29
-34.77
-40.57
-46.23
-51.30
-55.60
-59.31
-62.99
-67.37
-73.18
-80.85
-90.33
-100.82
-110.72
-117.84
-119.84
-114.95
-102.50
-83.25
-59.19
-32.98
-7.24
16.03
35.68
51.36
63.23
71.70
77.23
80.26
81.20
80.40
78.18
74.86
70.80
66.42
62.21
58.65
56.12
54.80
54.65
55.42
56.69
57.94
58.60
58.14
56.14
52.45
47.24
40.98
34.23
27.53
21.16
15.13
9.33
3.66
-1.85
-7.06
-11.83
-16.16
-20.28
-24.55
-29.30
-34.67
-40.49
-46.35
-51.77
-56.42
-60.30
-63.77
-67.58
-72.59
-79.60
-88.94
-100.12
-111.64
-121.12
-125.79
-123.31
-112.52
-93.94
-69.59
-42.44
-15.45
9.05
29.75
46.33
59.05
68.45
75.05
79.31
81.55
82.01
80.86
78.30
74.59
70.10
65.35
60.92
57.33
54.95
53.91
54.06
55.00
56.12
56.75
56.23
54.13
50.37
45.25
39.40
33.56
28.25
23.68
19.69
15.90
12.00
7.92
3.74
-0.34
-4.33
-8.41
-12.88
-17.94
-23.48
-29.12
-34.31
-38.63
-42.01
-44.75
-47.45
-50.85
-55.60
-62.20
-70.82
-81.11
-91.98
-101.63
-107.74
-108.08
-101.16
-86.86
-66.53
-42.64
-18.08
4.63
23.90
39.16
50.63
58.83
64.24
67.11
67.55
65.73
62.08
57.32
52.36
47.97
44.60
42.29
40.72
39.48
38.33
37.27
36.42
35.90
35.60
35.12
33.96
31.69
28.15
23.53
18.26
12.86
7.72
3.00
-1.41
-5.84
-10.72
-16.43
-23.10
-30.48
-37.99
-44.79
-50.17
-53.76
-55.76
-56.87
-58.13
-60.62
-65.16
-72.09
-81.09
-91.00
-99.93
-105.48
-105.38
-98.05
-83.24
-62.13
-37.06
-10.86
13.81
35.09
52.04
64.59
73.21
78.57
81.29
81.85
80.54
77.62
73.39
68.30
62.91
57.83
53.59
50.52
48.74
48.14
48.42
49.14
49.74
49.66
48.42
45.83
41.96
37.18
31.94
26.65
21.50
16.53
11.59
6.53
1.27
-4.12
-9.51
-14.73
-19.76
-24.70
-29.78
-35.18
-40.99
-47.02
-52.98
-58.51
-63.42
-67.83
-72.14
-77.01
-83.20
-91.30
-101.42
-112.88
-123.95
-132.06
-134.29
-128.38
-113.48
-90.60
-62.36
-32.22
-3.38
21.92
42.70
59.02
71.44
80.62
87.05
91.12
93.14
93.41
92.25
89.88
86.45
82.08
77.03
71.72
66.73
62.68
59.98
58.70
58.49
58.70
58.56
57.43
54.94
51.09
46.18
40.73
35.25
30.10
25.36
20.81
16.08
10.82
4.90
-1.48
-7.88
-13.78
-18.84
-23.02
-26.63
-30.18
-34.17
-38.82
-44.00
-49.27
-54.10
-58.17
-61.62
-65.07
-69.46
-75.74
-84.39
-95.10
-106.60
-116.73
-122.89
-122.59
-114.25
-97.66
-74.20
-46.53
-17.81
9.06
32.13
50.54
64.31
73.86
79.65
82.00
81.23
77.84
72.56
66.33
60.05
54.42
49.82
46.36
44.00
42.61
42.04
42.12
42.57
43.01
42.96
41.92
39.44
35.29
29.60
22.85
15.83
9.37
4.01
-0.25
-3.94
-7.90
-12.93
-19.35
-26.86
-34.70
-41.94
-47.88
-52.34
-55.69
-58.78
-62.65
-68.26
-76.19
-86.25
-97.32
-107.31
-113.55
-113.50
-105.44
-89.18
-66.12
-38.94
-10.79
15.47
37.88
55.57
68.54
77.22
82.13
83.67
82.19
78.12
72.13
65.08
57.92
51.46
46.19
42.30
39.67
38.12
37.42
37.40
37.84
38.48
38.91
38.65
37.17
34.08
29.22
22.80
15.35
7.65
0.43
-5.82
-11.08
-15.76
-20.56
-26.12
-32.79
-40.41
-48.42
-56.06
-62.73
-68.18
-72.61
-76.62
-81.07
-86.88
-94.74
-104.77
-116.24
-127.31
-135.27
-137.10
-130.49
-114.61
-90.56
-61.08
-29.67
0.37
26.75
48.40
65.28
77.93
87.05
93.30
97.18
99.05
99.18
97.74
94.87
90.78
85.81
80.42
75.18
70.56
66.88
64.30
62.76
62.00
61.59
61.04
59.80
57.50
53.95
49.23
43.61
37.39
30.82
24.02
17.05
9.97
2.89
-3.99
-10.45
-16.34
-21.74
-26.96
-32.42
-38.47
-45.21
-52.40
-59.53
-66.08
-71.77
-76.79
-81.70
-87.34
-94.51
-103.74
-114.94
-127.12
-138.32
-145.77
-146.59
-138.56
-121.02
-95.23
-64.05
-31.10
0.21
27.46
49.56
66.43
78.66
87.05
92.43
95.47
96.79
96.80
95.71
93.57
90.32
85.97
80.72
74.99
69.36
64.45
60.68
58.22
56.97
56.60
56.66
56.67
56.10
54.55
51.75
47.65
42.49
36.66
30.55
24.40
18.22
11.93
5.53
-0.81
-6.74
-12.04
-16.74
-21.25
-26.14
-31.85
-38.43
-45.49
-52.37
-58.50
-63.63
-68.02
-72.34
-77.50
-84.47
-93.86
-105.60
-118.55
-130.42
-138.15
-138.67
-129.95
-111.76
-85.88
-55.55
-24.53
4.05
28.25
47.45
61.95
72.47
79.73
84.24
86.34
86.33
84.54
81.38
77.32
72.80
68.23
63.94
60.16
57.06
54.78
53.37
52.76
52.70
52.74
52.34
51.02
48.49
44.67
39.70
33.80
27.26
20.34
13.41
6.87
1.15
-3.44
-6.91
-9.66
-12.33
-15.58
-19.78
-24.80
-30.17
-35.30
-39.81
-43.71
-47.37
-51.34
-56.21
-62.40
-70.14
-79.29
-89.12
-98.11
-104.06
-104.58
-97.83
-83.30
-62.10
-36.70
-10.13
14.85
36.36
53.54
66.25
74.73
79.26
80.18
77.93
73.19
66.88
60.04
53.65
48.37
44.52
42.08
40.80
40.36
40.51
41.03
41.71
42.27
42.36
41.59
39.68
36.58
32.42
27.54
22.28
16.90
11.47
5.97
0.37
-5.32
-10.92
-16.25
-21.19
-25.82
-30.38
-35.20
-40.47
-46.18
-52.03
-57.67
-62.74
-67.11
-70.97
-74.82
-79.39
-85.49
-93.65
-103.73
-114.61
-124.06
-129.23
-127.41
-116.88
-97.67
-71.61
-41.79
-11.70
15.70
38.60
56.36
69.28
78.15
83.81
86.96
88.06
87.40
85.23
81.78
77.41
72.53
67.55
62.85
58.71
55.36
53.00
51.75
51.59
52.20
52.99
53.13
51.87
48.77
43.95
38.03
31.85
26.21
21.42
17.30
13.26
8.69
3.26
-2.84
-9.04
-14.63
-19.15
-22.64
-25.60
-28.85
-33.06
-38.56
-45.18
-52.33
-59.29
-65.44
-70.48
-74.55
-78.25
-82.59
-88.65
-97.19
-108.07
-119.91
-130.11
-135.39
-132.78
-120.66
-99.39
-71.31
-39.98
-9.10
18.44
41.09
58.55
71.34
80.25
85.98
89.06
89.93
88.98
86.63
83.29
79.25
74.74
69.96
65.14
60.66
56.94
54.36
53.11
53.06
53.71
54.45
54.64
53.92
52.19
49.58
46.26
42.30
37.67
32.27
26.08
19.17
11.74
3.99
-3.81
-11.40
-18.50
-24.83
-30.27
-34.99
-39.45
-44.28
-49.94
-56.54
-63.76
-70.96
-77.53
-83.06
-87.54
-91.34
-95.08
-99.52
-105.26
-112.44
-120.30
-126.99
-129.84
-126.05
-113.71
-92.66
-64.75
-33.33
-2.23
25.38
47.69
64.32
75.83
83.12
86.94
87.65
85.45
80.59
73.64
65.48
57.19
49.80
44.06
40.30
38.51
38.37
39.49
41.43
43.75
45.97
47.60
48.15
47.29
44.86
40.92
35.77
29.81
23.53
17.34
11.49
6.02
0.80
-4.44
-9.98
-16.00
-22.49
-29.29
-36.10
-42.56
-48.36
-53.31
-57.43
-60.98
-64.53
-68.86
-74.82
-83.00
-93.40
-105.04
-115.86
-123.00
-123.52
-115.33
-98.01
-73.02
-43.36
-12.62
16.00
40.39
59.69
73.99
83.82
89.73
92.22
91.71
88.68
83.76
77.68
71.17
64.90
59.36
54.88
51.65
49.69
48.93
49.15
50.02
51.05
51.71
51.46
49.95
46.98
42.62
37.10
30.72
23.78
16.59
9.46
2.67
-3.51
-8.96
-13.77
-18.30
-23.04
-28.51
-34.98
-42.32
-50.04
-57.37
-63.66
-68.69
-72.72
-76.57
-81.27
-87.78
-96.71
-107.94
-120.42
-132.05
-139.92
-140.94
-132.76
-114.63
-87.87
-55.58
-21.79
9.75
36.51
57.48
72.91
83.67
90.73
94.80
96.36
95.82
93.59
90.10
85.75
80.89
75.84
70.95
66.59
63.12
60.76
59.51
59.08
59.04
58.87
58.13
56.52
53.86
50.11
45.34
39.70
33.42
26.78
20.03
13.37
6.94
0.83
-4.92
-10.34
-15.54
-20.75
-26.27
-32.31
-38.89
-45.74
-52.39
-58.35
-63.32
-67.45
-71.32
-75.91
-82.21
-90.89
-101.81
-113.71
-124.19
-130.21
-128.88
-118.40
-98.77
-71.91
-41.08
-10.00
18.17
41.46
59.17
71.61
79.66
84.28
86.36
86.53
85.24
82.76
79.30
75.11
70.48
65.85
61.59
58.06
55.47
53.91
53.30
53.44
53.94
54.23
53.70
51.82
48.39
43.59
37.97
32.14
26.54
21.25
16.15
11.02
5.77
0.53
-4.51
-9.24
-13.83
-18.61
-23.92
-29.90
-36.36
-42.88
-48.93
-54.21
-58.68
-62.68
-66.79
-71.74
-78.19
-86.60
-96.94
-108.38
-119.20
-126.84
-128.50
-121.93
-106.26
-82.47
-53.22
-22.09
7.48
32.95
53.19
68.25
78.80
85.62
89.29
90.14
88.48
84.75
79.57
73.68
67.76
62.34
57.77
54.22
51.77
50.37
49.95
50.27
50.97
51.54
51.43
50.17
47.52
43.50
38.43
32.80
27.04
21.44
16.07
10.86
5.75
0.75
-4.04
-8.54
-12.84
-17.18
-21.87
-27.10
-32.77
-38.53
-43.92
-48.57
-52.40
-55.70
-59.08
-63.34
-69.18
-77.02
-86.65
-97.02
-106.17
-111.53
-110.55
-101.52
-84.29
-60.38
-32.64
-4.36
21.62
43.46
60.42
72.51
80.06
83.39
82.84
78.92
72.43
64.51
56.37
49.07
43.31
39.40
37.25
36.58
36.94
37.89
38.99
39.91
40.38
40.17
39.09
36.92
33.50
28.76
22.90
16.32
9.62
3.37
-2.03
-6.54
-10.44
-14.29
-18.65
-23.88
-29.96
-36.51
-42.89
-48.53
-53.13
-56.79
-60.03
-63.61
-68.34
-74.88
-83.46
-93.63
-104.07
-112.55
-116.41
-113.24
-101.70
-82.08
-56.29
-27.38
1.39
27.31
48.68
64.87
76.04
82.70
85.47
84.91
81.55
76.04
69.18
61.95
55.29
49.95
46.25
44.13
43.24
43.18
43.60
44.27
44.95
45.29
44.88
43.36
40.58
36.69
32.02
26.92
21.61
16.11
10.36
4.34
-1.79
-7.76
-13.31
-18.32
-22.90
-27.43
-32.33
-37.85
-44.02
-50.54
-56.96
-62.86
-67.98
-72.44
-76.67
-81.41
-87.56
-95.83
-106.36
-118.26
-129.47
-136.96
-137.52
-128.82
-110.30
-83.51
-51.69
-18.78
11.69
37.41
57.50
72.20
82.35
88.85
92.47
93.78
93.20
91.10
87.79
83.56
78.73
73.59
68.55
64.03
60.40
57.93
56.65
56.35
56.57
56.71
56.18
54.49
51.43
47.08
41.74
35.83
29.75
23.73
17.85
12.04
6.26
0.51
-5.15
-10.64
-15.96
-21.23
-26.62
-32.26
-38.17
-44.22
-50.17
-55.73
-60.73
-65.21
-69.50
-74.21
-80.17
-88.10
-98.25
-109.95
-121.45
-130.07
-132.83
-127.33
-112.57
-89.38
-60.30
-28.82
1.52
28.04
49.32
65.20
76.34
83.67
88.02
89.92
89.69
87.63
84.16
79.77
74.97
70.15
65.53
61.28
57.54
54.54
52.50
51.53
51.46
51.83
51.97
51.23
49.17
45.73
41.13
35.77
30.06
24.26
18.48
12.75
7.04
1.44
-3.94
-9.00
-13.74
-18.30
-22.99
-28.04
-33.51
-39.18
-44.64
-49.44
-53.37
-56.56
-59.53
-63.08
-68.04
-75.08
-84.44
-95.63
-107.26
-117.05
-122.19
-120.04
-109.07
-89.44
-63.11
-33.33
-3.65
22.99
44.85
61.37
72.83
79.82
82.92
82.60
79.36
73.84
66.92
59.59
52.80
47.27
43.33
40.96
39.88
39.66
39.97
40.53
41.17
41.67
41.76
41.06
39.21
35.95
31.29
25.47
18.98
12.42
6.32
1.02
-3.46
-7.41
-11.36
-15.79
-21.02
-27.05
-33.52
-39.89
-45.65
-50.51
-54.49
-57.96
-61.52
-65.95
-72.00
-80.17
-90.34
-101.52
-111.70
-118.16
-118.17
-109.85
-92.84
-68.60
-39.98
-10.46
16.88
39.93
57.85
70.74
79.25
84.09
85.80
84.80
81.50
76.46
70.41
64.20
58.56
54.02
50.78
48.78
47.85
47.77
48.37
49.40
50.48
51.06
50.51
48.35
44.45
39.12
33.00
26.79
20.98
15.68
10.68
5.63
0.36
-5.03
-10.27
-15.09
-19.44
-23.63
-28.11
-33.31
-39.42
-46.23
-53.26
-59.90
-65.71
-70.61
-74.92
-79.38
-84.95
-92.52
-102.46
-114.19
-125.99
-135.11
-138.40
-133.28
-118.59
-95.13
-65.47
-33.19
-1.90
25.63
47.94
64.78
76.71
84.64
89.43
91.74
92.03
90.63
87.85
83.98
79.40
74.52
69.75
65.46
61.92
59.27
57.57
56.80
56.81
57.26
57.65
57.36
55.84
52.81
48.36
42.92
37.09
31.31
25.77
20.30
14.60
8.50
2.05
-4.38
-10.32
-15.43
-19.68
-23.39
-27.13
-31.45
-36.63
-42.60
-48.91
-54.91
-60.08
-64.31
-68.03
-72.14
-77.72
-85.65
-96.16
-108.51
-120.87
-130.54
-134.48
-130.16
-116.33
-93.60
-64.40
-32.35
-1.24
25.98
47.76
63.99
75.46
83.24
88.20
90.84
91.41
90.11
87.19
82.99
77.92
72.42
66.91
61.85
57.64
54.63
52.97
52.59
53.09
53.87
54.13
53.16
50.56
46.34
40.96
35.18
29.69
24.87
20.67
16.70
12.48
7.69
2.28
-3.57
-9.49
-15.15
-20.34
-25.09
-29.63
-34.27
-39.21
-44.41
-49.57
-54.27
-58.31
-61.83
-65.37
-69.71
-75.61
-83.46
-93.06
-103.49
-113.04
-119.38
-120.04
-113.08
-97.81
-75.23
-47.81
-18.85
8.49
32.05
50.85
64.91
74.70
80.68
83.14
82.32
78.64
72.84
65.92
58.93
52.75
47.90
44.57
42.68
41.99
42.24
43.12
44.29
45.28
45.57
44.76
42.67
39.40
35.26
30.67
25.88
20.97
15.89
10.59
5.15
-0.20
-5.26
-9.99
-14.60
-19.43
-24.82
-30.80
-37.13
-43.28
-48.72
-53.16
-56.63
-59.56
-62.63
-66.72
-72.60
-80.76
-91.07
-102.45
-112.81
-119.35
-119.30
-110.74
-93.42
-68.89
-40.13
-10.62
16.64
39.67
57.73
70.93
79.79
84.85
86.60
85.51
82.14
77.17
71.36
65.39
59.80
54.93
51.00
48.12
46.30
45.52
45.69
46.58
47.82
48.85
49.03
47.76
44.74
40.06
34.28
28.22
22.63
17.97
14.17
10.76
7.12
2.71
-2.60
-8.51
-14.40
-19.66
-23.98
-27.50
-30.82
-34.68
-39.63
-45.71
-52.51
-59.29
-65.41
-70.57
-74.95
-79.15
-84.02
-90.41
-98.91
-109.50
-121.17
-131.84
-138.56
-138.33
-128.97
-110.08
-83.23
-51.63
-19.08
11.04
36.55
56.59
71.37
81.57
88.01
91.39
92.30
91.28
88.86
85.53
81.69
77.60
73.46
69.48
65.87
62.88
60.70
59.44
58.96
59.00
59.15
58.94
57.98
56.02
52.95
48.85
43.94
38.56
33.11
27.92
23.20
18.96
15.00
11.06
6.85
2.22
-2.80
-8.03
-13.18
-17.94
-22.10
-25.66
-28.84
-32.10
-35.92
-40.63
-46.20
-52.26
-58.23
-63.57
-68.05
-71.87
-75.59
-80.02
-85.99
-94.10
-104.43
-116.15
-127.39
-135.33
-136.83
-129.42
-112.22
-86.41
-55.03
-22.01
8.93
35.22
55.76
70.67
80.72
86.81
89.65
89.77
87.64
83.78
78.80
73.32
67.88
62.88
58.53
54.96
52.28
50.61
50.08
50.61
51.88
53.27
53.95
53.19
50.58
46.26
40.77
34.86
29.16
23.95
19.13
14.37
9.36
4.01
-1.46
-6.65
-11.17
-14.84
-17.80
-20.51
-23.51
-27.27
-31.92
-37.23
-42.72
-47.82
-52.20
-55.96
-59.64
-64.13
-70.35
-78.89
-89.57
-101.20
-111.56
-117.82
-117.27
-108.18
-90.40
-65.57
-36.62
-6.99
20.33
43.35
61.26
74.22
82.78
87.61
89.21
87.99
84.39
79.02
72.66
66.12
60.15
55.19
51.42
48.81
47.22
46.54
46.65
47.39
48.40
49.16
49.02
47.48
44.35
39.85
34.54
29.09
24.00
19.42
15.14
10.70
5.74
0.13
-5.91
-11.93
-17.42
-22.08
-25.93
-29.35
-32.90
-37.11
-42.26
-48.27
-54.70
-60.97
-66.60
-71.41
-75.68
-80.09
-85.55
-92.92
-102.51
-113.76
-124.95
-133.38
-135.94
-130.06
-114.63
-90.48
-60.26
-27.66
3.63
30.83
52.49
68.43
79.28
85.94
89.33
90.22
89.31
87.21
84.38
81.15
77.58
73.65
69.31
64.70
60.19
56.32
53.60
52.30
52.29
53.00
53.65
53.39
51.66
48.28
43.54
38.04
32.44
27.29
22.75
18.63
14.47
9.85
4.54
-1.34
-7.35
-12.99
-17.89
-22.04
-25.76
-29.64
-34.19
-39.71
-46.09
-52.86
-59.36
-65.04
-69.60
-73.24
-76.62
-80.75
-86.69
-95.13
-105.92
-117.74
-128.12
-133.89
-132.03
-120.77
-100.19
-72.37
-40.76
-9.22
19.14
42.44
60.17
72.76
81.00
85.69
87.48
86.87
84.46
80.84
76.61
72.19
67.83
63.59
59.51
55.78
52.71
50.71
50.05
50.64
51.96
53.12
53.22
51.61
48.17
43.36
38.00
32.90
28.58
25.02
21.76
18.16
13.70
8.27
2.14
-4.13
-9.98
-15.08
-19.42
-23.31
-27.17
-31.46
-36.40
-41.97
-47.91
-53.77
-59.09
-63.61
-67.35
-70.76
-74.60
-79.81
-87.12
-96.64
-107.47
-117.58
-124.13
-124.24
-115.84
-98.52
-73.68
-44.23
-13.68
14.82
39.11
58.23
72.11
81.16
85.96
87.07
85.06
80.62
74.56
67.74
60.95
54.80
49.69
45.80
43.16
41.74
41.44
42.09
43.34
44.75
45.76
45.85
44.68
42.09
38.21
33.29
27.70
21.76
15.79
10.06
4.77
0.00
-4.33
-8.48
-12.80
-17.64
-23.18
-29.34
-35.81
-42.14
-47.87
-52.71
-56.68
-60.09
-63.58
-67.97
-74.09
-82.44
-92.80
-103.92
-113.49
-118.58
-116.48
-105.55
-85.94
-59.58
-29.67
0.28
27.29
49.53
66.31
77.89
84.96
88.31
88.66
86.58
82.62
77.36
71.41
65.42
59.88
55.14
51.30
48.35
46.24
44.96
44.48
44.67
45.13
45.30
44.54
42.47
39.04
34.57
29.56
24.46
19.43
14.37
9.09
3.50
-2.28
-7.93
-13.13
-17.78
-22.07
-26.49
-31.55
-37.56
-44.40
-51.59
-58.41
-64.27
-68.95
-72.74
-76.42
-81.03
-87.62
-96.79
-108.34
-120.98
-132.32
-139.24
-138.66
-128.52
-108.53
-80.46
-47.64
-14.04
16.83
42.68
62.67
77.06
86.71
92.53
95.34
95.77
94.34
91.57
87.87
83.59
78.96
74.14
69.33
64.80
60.92
58.04
56.45
56.18
56.91
57.99
58.62
57.98
55.58
51.41
45.89
39.75
33.70
28.12
22.99
17.96
12.62
6.76
0.55
-5.58
-11.15
-15.96
-20.21
-24.40
-29.10
-34.66
-40.99
-47.64
-54.05
-59.73
-64.54
-68.70
-72.71
-77.32
-83.35
-91.46
-101.78
-113.56
-124.88
-132.93
-134.58
-127.39
-110.52
-85.09
-53.98
-20.97
10.31
37.22
58.50
74.02
84.44
90.67
93.62
94.05
92.62
89.88
86.28
82.14
77.62
72.78
67.69
62.51
57.55
53.28
50.19
48.58
48.37
49.07
49.87
49.86
48.41
45.32
40.88
35.73
30.56
25.82
21.60
17.65
13.49
8.73
3.22
-2.85
-9.03
-14.77
-19.70
-23.77
-27.32
-30.91
-35.06
-40.03
-45.68
-51.59
-57.21
-62.16
-66.36
-70.09
-73.98
-78.81
-85.32
-93.83
-103.96
-114.29
-122.45
-125.56
-121.04
-107.55
-85.55
-57.30
-26.26
3.98
30.59
51.99
67.84
78.52
84.71
87.07
86.13
82.54
77.11
70.74
64.29
58.39
53.33
49.17
45.84
43.34
41.72
41.05
41.22
41.89
42.48
42.31
40.83
37.78
33.24
27.63
21.57
15.70
10.59
6.61
3.89
2.26
1.32
0.57
-0.51
-2.34
-5.13
-8.96
-13.77
-19.44
-25.77
-32.45
-39.10
-45.32
-50.90
-55.92
-60.87
-66.59
-73.92
-83.30
-94.23
-105.07
-113.16
-115.55
-109.91
-95.36
-72.90
-45.16
-15.62
12.43
36.62
55.84
70.02
79.72
85.59
88.17
87.87
85.06
80.24
74.08
67.35
60.82
55.10
50.55
47.25
45.13
44.04
43.85
44.38
45.34
46.26
46.54
45.61
43.13
39.17
34.19
28.79
23.48
18.45
13.55
8.49
3.06
-2.68
-8.41
-13.78
-18.55
-22.79
-26.85
-31.20
-36.18
-41.91
-48.14
-54.40
-60.22
-65.32
-69.75
-73.91
-78.46
-84.13
-91.52
-100.81
-111.47
-122.08
-130.30
-133.34
-128.67
-114.89
-92.38
-63.36
-31.26
0.21
28.06
50.58
67.39
78.97
86.20
89.98
91.05
90.00
87.36
83.61
79.16
74.37
69.55
64.93
60.69
57.01
54.07
52.02
50.93
50.74
51.14
51.61
51.45
50.10
47.26
43.05
37.92
32.47
27.14
22.04
16.99
11.63
5.73
-0.70
-7.29
-13.53
-19.01
-23.70
-27.93
-32.26
-37.23
-43.00
-49.29
-55.50
-60.99
-65.38
-68.79
-71.79
-75.29
-80.28
-87.53
-97.22
-108.55
-119.62
-127.60
-129.42
-122.67
-106.52
-82.10
-52.27
-20.70
9.09
34.66
54.85
69.58
79.42
85.13
87.38
86.76
83.85
79.24
73.57
67.47
61.47
56.05
51.58
48.28
46.26
45.44
45.58
46.33
47.26
47.94
48.00
47.13
45.14
41.93
37.54
32.08
25.85
19.23
12.69
6.62
1.26
-3.39
-7.63
-11.87
-16.54
-21.85
-27.71
-33.79
-39.64
-44.85
-49.25
-52.87
-56.01
-59.18
-63.07
-68.43
-75.87
-85.47
-96.47
-107.09
-114.71
-116.55
-110.46
-95.72
-73.38
-45.97
-16.78
11.02
35.06
54.14
68.08
77.31
82.53
84.37
83.36
80.01
74.89
68.77
62.50
56.88
52.44
49.35
47.44
46.35
45.75
45.48
45.49
45.73
45.94
45.66
44.38
41.76
37.78
32.78
27.22
21.53
15.88
10.26
4.55
-1.30
-7.20
-12.96
-18.36
-23.30
-27.91
-32.52
-37.51
-43.13
-49.40
-55.98
-62.37
-68.09
-72.96
-77.24
-81.57
-86.88
-94.02
-103.41
-114.60
-126.05
-135.18
-138.87
-134.38
-120.30
-97.19
-67.53
-34.98
-3.26
24.79
47.71
65.25
77.93
86.52
91.70
94.06
94.11
92.42
89.50
85.84
81.79
77.58
73.38
69.36
65.74
62.78
60.77
59.86
59.97
60.69
61.32
61.07
59.30
55.82
50.91
45.21
39.43
34.07
29.24
24.68
19.95
14.67
8.75
2.39
-3.98
-9.90
-15.09
-19.59
-23.77
-28.17
-33.28
-39.32
-46.12
-53.20
-59.96
-65.93
-70.98
-75.42
-79.92
-85.39
-92.68
-102.19
-113.52
-125.17
-134.65
-138.93
-135.32
-122.40
-100.53
-71.92
-39.97
-8.31
20.10
43.52
61.44
74.26
82.80
87.89
90.24
90.38
88.78
85.88
82.16
78.04
73.88
69.90
66.24
63.00
60.34
58.47
57.60
57.75
58.62
59.62
59.94
58.91
56.13
51.71
46.19
40.25
34.48
29.12
24.08
19.01
13.62
7.83
1.88
-3.83
-8.92
-13.23
-16.98
-20.62
-24.72
-29.58
-35.21
-41.22
-46.98
-51.98
-55.96
-59.14
-62.12
-65.79
-71.05
-78.51
-88.05
-98.67
-108.36
-114.42
-114.16
-105.74
-88.88
-65.06
-37.14
-8.53
17.81
39.92
57.06
69.39
77.46
81.87
83.13
81.70
78.12
73.04
67.23
61.41
56.13
51.75
48.42
46.12
44.78
44.30
44.60
45.55
46.86
48.05
48.45
47.43
44.64
40.21
34.75
29.11
23.95
19.53
15.58
11.55
6.98
1.74
-3.88
-9.39
-14.33
-18.55
-22.28
-26.00
-30.24
-35.34
-41.33
-47.92
-54.54
-60.61
-65.69
-69.68
-72.90
-76.07
-80.16
-86.12
-94.48
-104.95
-116.08
-125.38
-129.76
-126.48
-114.07
-92.95
-65.39
-34.81
-4.81
21.79
43.43
59.77
71.30
78.86
83.30
85.32
85.43
83.99
81.35
77.83
73.78
69.54
65.41
61.63
58.35
55.72
53.87
52.90
52.82
53.35
53.99
54.03
52.80
49.93
45.50
40.00
34.20
28.75
24.03
20.01
16.29
12.37
7.85
2.63
-3.09
-8.87
-14.17
-18.61
-22.08
-24.86
-27.51
-30.74
-35.12
-40.80
-47.43
-54.30
-60.63
-65.88
-70.00
-73.38
-76.80
-81.17
-87.35
-95.70
-105.83
-116.25
-124.45
-127.39
-122.41
-108.21
-85.42
-56.53
-25.19
4.86
30.76
51.04
65.58
75.16
80.93
83.96
85.03
84.59
82.88
80.12
76.54
72.47
68.21
64.03
60.06
56.40
53.20
50.73
49.29
49.02
49.75
50.90
51.66
51.23
49.15
45.42
40.50
35.05
29.68
24.78
20.39
16.32
12.30
8.09
3.58
-1.23
-6.25
-11.37
-16.42
-21.24
-25.70
-29.80
-33.67
-37.61
-41.97
-47.01
-52.70
-58.71
-64.51
-69.61
-73.80
-77.36
-81.01
-85.68
-92.26
-101.16
-111.95
-123.12
-132.16
-136.08
-132.15
-118.88
-96.60
-67.46
-34.92
-2.70
26.09
49.59
67.24
79.40
86.97
90.88
92.01
90.99
88.38
84.64
80.17
75.30
70.33
65.52
61.08
57.19
54.06
51.89
50.82
50.89
51.87
53.26
54.30
54.16
52.22
48.23
42.54
35.99
29.58
24.13
19.95
16.73
13.72
10.17
5.64
0.22
-5.59
-11.14
-15.94
-19.82
-23.00
-25.88
-28.95
-32.53
-36.76
-41.54
-46.59
-51.51
-55.99
-59.84
-63.24
-66.63
-70.71
-76.21
-83.59
-92.61
-102.10
-109.87
-113.13
-109.34
-97.03
-76.54
-49.97
-20.61
8.05
33.25
53.44
68.25
78.01
83.30
84.68
82.70
78.00
71.43
64.00
56.72
50.37
45.41
41.94
39.81
38.78
38.61
39.17
40.34
41.89
43.47
44.56
44.63
43.31
40.56
36.66
32.11
27.35
22.62
17.93
13.12
8.10
2.96
-2.03
-6.51
-10.29
-13.43
-16.31
-19.43
-23.18
-27.68
-32.69
-37.76
-42.46
-46.63
-50.47
-54.60
-59.85
-67.09
-76.89
-89.24
-103.32
-117.32
-128.67
-134.40
-131.98
-120.03
-98.92
-70.76
-38.92
-7.15
21.31
44.37
61.28
72.35
78.54
80.98
80.67
78.42
74.83
70.36
65.45
60.41
55.51
50.93
46.85
43.46
41.01
39.76
39.86
41.16
43.16
45.07
46.08
45.53
43.24
39.47
34.79
29.84
25.05
20.51
16.02
11.26
5.97
0.21
-5.74
-11.43
-16.51
-20.88
-24.77
-28.63
-32.95
-38.00
-43.67
-49.62
-55.35
-60.49
-64.92
-68.83
-72.72
-77.29
-83.29
-91.28
-101.20
-111.97
-121.39
-126.48
-124.28
-112.92
-92.39
-64.72
-33.37
-2.22
25.54
48.05
64.82
76.34
83.44
86.99
87.63
85.95
82.54
78.00
72.89
67.67
62.61
57.90
53.69
50.13
47.45
45.87
45.51
46.23
47.66
49.12
49.81
48.99
46.26
41.72
35.97
29.88
24.29
19.64
15.83
12.33
8.48
3.84
-1.61
-7.50
-13.24
-18.34
-22.63
-26.27
-29.73
-33.55
-38.17
-43.70
-49.89
-56.20
-62.07
-67.09
-71.23
-74.84
-78.60
-83.30
-89.54
-97.37
-106.03
-113.75
-118.06
-116.33
-106.66
-88.64
-63.65
-34.57
-4.97
21.97
44.12
60.70
71.97
78.72
81.88
82.25
80.48
77.17
72.94
68.40
64.08
60.34
57.36
55.14
53.66
52.89
52.86
53.51
54.63
55.72
56.09
55.01
52.03
47.20
41.03
34.35
27.93
22.19
17.12
12.39
7.69
2.88
-1.92
-6.44
-10.51
-14.19
-17.74
-21.55
-25.91
-30.92
-36.45
-42.19
-47.77
-52.85
-57.25
-61.04
-64.59
-68.59
-73.86
-81.06
-90.27
-100.67
-110.39
-116.78
-117.10
-109.35
-93.03
-69.46
-41.38
-12.22
14.93
37.95
55.95
68.94
77.47
82.22
83.83
82.94
80.21
76.32
71.86
67.24
62.72
58.45
54.57
51.25
48.71
47.16
46.72
47.30
48.55
49.83
50.40
49.52
46.83
42.42
36.86
30.95
25.39
20.49
16.14
11.90
7.33
2.19
-3.38
-8.98
-14.16
-18.62
-22.39
-25.86
-29.58
-34.03
-39.41
-45.49
-51.78
-57.69
-62.83
-67.15
-71.05
-75.30
-80.78
-88.29
-97.99
-109.15
-119.90
-127.43
-128.68
-121.32
-104.63
-79.87
-50.03
-18.87
10.13
34.62
53.62
67.32
76.51
82.11
84.87
85.34
83.96
81.18
77.43
73.11
68.57
64.05
59.76
55.86
52.57
50.13
48.74
48.45
49.07
50.05
50.66
50.15
48.04
44.35
39.53
34.32
29.36
24.91
20.83
16.65
11.92
6.47
0.57
-5.25
-10.42
-14.66
-18.14
-21.38
-24.99
-29.43
-34.80
-40.79
-46.82
-52.28
-56.79
-60.32
-63.34
-66.70
-71.39
-78.24
-87.45
-98.23
-108.72
-116.22
-117.90
-111.66
-96.82
-74.51
-47.31
-18.59
8.51
31.73
50.06
63.49
72.59
78.00
80.14
79.31
75.85
70.36
63.77
57.11
51.27
46.77
43.69
41.85
41.00
40.91
41.42
42.30
43.22
43.74
43.38
41.79
38.82
34.52
29.14
23.05
16.72
10.58
4.97
0.04
-4.29
-8.29
-12.36
-16.88
-22.09
-27.99
-34.31
-40.64
-46.49
-51.50
-55.59
-58.99
-62.30
-66.30
-71.84
-79.52
-89.32
-100.24
-110.26
-116.59
-116.43
-107.95
-90.96
-67.13
-39.48
-11.45
14.16
35.66
52.58
65.23
74.18
79.89
82.65
82.71
80.43
76.40
71.33
65.95
60.85
56.42
52.86
50.24
48.56
47.79
47.85
48.53
49.43
50.00
49.67
48.01
44.87
40.50
35.39
30.07
24.88
19.88
14.89
9.67
4.15
-1.52
-7.05
-12.17
-16.85
-21.33
-26.04
-31.34
-37.37
-43.93
-50.59
-56.85
-62.38
-67.14
-71.42
-75.85
-81.25
-88.42
-97.84
-109.23
-121.23
-131.45
-136.85
-134.65
-123.27
-102.96
-75.87
-45.33
-15.01
12.19
34.59
51.81
64.43
73.43
79.78
84.15
86.88
88.10
87.84
86.19
83.37
79.68
75.45
71.01
66.70
62.88
59.92
58.17
57.73
58.35
59.43
60.12
59.57
57.24
53.09
47.55
41.40
35.38
29.98
25.27
20.99
16.71
12.12
7.15
2.00
-3.06
-7.80
-12.15
-16.23
-20.31
-24.62
-29.41
-34.78
-40.61
-46.61
-52.29
-57.26
-61.43
-65.23
-69.51
-75.34
-83.48
-93.96
-105.79
-116.97
-124.86
-126.78
-120.77
-106.16
-83.93
-56.48
-27.03
1.21
25.85
45.71
60.66
71.27
78.23
82.05
83.03
81.44
77.71
72.51
66.73
61.25
56.72
53.46
51.55
50.78
50.85
51.44
52.20
52.77
52.80
51.97
50.06
46.99
42.86
37.92
32.49
26.85
21.21
15.63
10.16
4.83
-0.27
-5.07
-9.53
-13.77
-18.01
-22.56
-27.65
-33.28
-39.18
-44.92
-50.10
-54.56
-58.53
-62.65
-67.73
-74.54
-83.45
-94.10
-105.22
-114.70
-119.95
-118.59
-109.16
-91.69
-67.76
-40.06
-11.73
14.55
36.97
54.82
68.21
77.69
83.86
87.22
88.11
86.82
83.70
79.27
74.19
69.17
64.78
61.37
59.03
57.65
57.05
57.05
57.46
58.03
58.38
58.01
56.44
53.39
48.90
43.35
37.34
31.51
26.31
21.90
18.09
14.43
10.43
5.70
0.11
-6.07
-12.29
-17.87
-22.30
-25.48
-27.89
-30.34
-33.74
-38.63
-44.96
-52.20
-59.48
-66.05
-71.55
-76.08
-80.17
-84.66
-90.45
-98.29
-108.37
-119.91
-130.91
-138.40
-139.20
-130.97
-113.17
-87.35
-56.72
-25.12
4.17
29.08
48.96
64.20
75.59
83.88
89.63
93.18
94.83
94.85
93.52
91.10
87.81
83.85
79.46
74.92
70.58
66.82
63.92
62.02
61.01
60.54
60.08
59.08
57.11
54.00
49.81
44.84
39.47
34.11
29.02
24.34
20.06
16.05
12.06
7.86
3.28
-1.70
-6.92
-12.04
-16.75
-20.86
-24.48
-27.96
-31.78
-36.32
-41.65
-47.52
-53.45
-58.92
-63.54
-67.27
-70.39
-73.54
-77.57
-83.35
-91.46
-101.71
-112.90
-122.75
-128.35
-126.97
-116.94
-98.28
-72.80
-43.54
-13.97
12.96
35.38
52.58
64.82
72.85
77.51
79.54
79.44
77.61
74.37
70.12
65.25
60.26
55.54
51.44
48.23
46.09
45.16
45.41
46.54
48.00
49.02
48.88
47.15
43.88
39.50
34.65
29.87
25.41
21.19
16.92
12.35
7.35
2.01
-3.46
-8.79
-13.82
-18.54
-23.06
-27.56
-32.18
-36.96
-41.78
-46.46
-50.83
-54.84
-58.61
-62.45
-66.88
-72.46
-79.65
-88.38
-97.81
-106.13
-110.87
-109.55
-100.48
-83.46
-59.99
-32.85
-5.29
19.83
40.67
56.57
67.76
74.93
78.81
79.95
78.75
75.57
70.87
65.31
59.61
54.39
50.04
46.73
44.43
43.06
42.59
43.00
44.16
45.75
47.20
47.83
47.04
44.51
40.34
35.02
29.23
23.63
18.64
14.31
10.38
6.43
2.12
-2.73
-7.99
-13.33
-18.37
-22.81
-26.61
-30.01
-33.50
-37.58
-42.58
-48.47
-54.86
-61.17
-66.78
-71.38
-75.07
-78.34
-82.07
-87.23
-94.65
-104.57
-116.22
-127.61
-135.75
-137.37
-129.98
-112.80
-87.12
-56.05
-23.51
6.90
32.73
52.98
67.84
78.14
84.82
88.68
90.34
90.24
88.80
86.33
83.11
79.30
75.08
70.60
66.10
61.89
58.33
55.77
54.45
54.32
55.08
56.09
56.56
55.79
53.37
49.34
44.17
38.54
33.09
28.17
23.79
19.66
15.36
10.53
5.06
-0.86
-6.78
-12.20
-16.73
-20.35
-23.46
-26.67
-30.65
-35.75
-41.87
-48.53
-55.05
-60.82
-65.56
-69.37
-72.71
-76.32
-81.07
-87.81
-96.89
-107.89
-119.19
-128.13
-131.51
-126.57
-112.01
-88.52
-58.75
-26.48
4.46
31.13
52.04
67.01
76.78
82.49
85.22
85.81
84.87
82.80
79.82
76.11
71.81
67.08
62.16
57.36
53.06
49.68
47.54
46.82
47.37
48.69
50.03
50.55
49.56
46.76
42.33
36.84
31.06
25.73
21.27
17.61
14.30
10.64
6.11
0.61
-5.47
-11.38
-16.46
-20.39
-23.42
-26.21
-29.48
-33.73
-38.91
-44.60
-50.15
-55.01
-58.96
-62.22
-65.33
-69.06
-74.13
-81.00
-89.61
-99.15
-108.01
-113.90
-114.36
-107.35
-92.06
-69.27
-41.32
-11.52
16.76
40.89
59.51
72.44
80.35
84.17
84.71
82.56
78.20
72.12
64.96
57.49
50.47
44.53
40.03
37.10
35.65
35.44
36.16
37.43
38.79
39.76
39.89
38.84
36.47
32.81
28.10
22.69
16.95
11.24
5.84
0.87
-3.74
-8.22
-12.86
-17.92
-23.50
-29.46
-35.51
-41.27
-46.42
-50.74
-54.26
-57.29
-60.36
-64.19
-69.52
-76.80
-85.85
-95.63
-104.14
-108.83
-107.21
-97.72
-80.22
-56.29
-28.71
-0.75
24.72
45.85
61.97
73.27
80.37
83.86
84.13
81.52
76.49
69.75
62.24
54.95
48.65
43.81
40.56
38.78
38.25
38.65
39.66
40.87
41.77
41.90
40.92
38.69
35.35
31.17
26.44
21.41
16.19
10.80
5.26
-0.34
-5.86
-11.11
-16.04
-20.72
-25.39
-30.34
-35.75
-41.56
-47.54
-53.36
-58.79
-63.81
-68.69
-73.89
-80.01
-87.60
-97.06
-108.29
-120.45
-131.70
-139.34
-140.44
-132.72
-115.47
-89.97
-59.25
-27.15
2.75
27.98
47.51
61.59
71.10
77.07
80.33
81.40
80.59
78.10
74.17
69.09
63.26
57.10
51.03
45.47
40.72
36.97
34.21
32.26
30.73
29.14
26.97
23.85
19.65
14.47
8.60
2.32
-4.19
-11.03
-18.45
-26.74
-35.91
-45.40
-53.99
-59.90
-61.33
-56.94
-46.42
-30.63
-11.36
9.18
28.93
46.37
60.62
71.27
78.16
81.23
80.55
76.50
69.82
61.67
53.34
45.99
40.34
36.64
34.73
34.19
34.57
35.48
36.63
37.71
38.46
38.61
37.95
36.41
34.06
31.13
27.87
24.50
21.12
17.70
14.10
10.20
6.00
1.69
-2.38
-5.88
-8.61
-10.62
-12.20
-13.81
-15.95
-18.99
-22.98
-27.63
-32.40
-36.65
-40.01
-42.52
-44.75
-47.49
-51.49
-57.05
-63.92
-71.36
-78.50
-84.60
-89.37
-92.99
-96.07
-99.63
-104.82
-112.49
-122.68
-134.10
-143.92
-148.42
-144.06
-128.81
-103.11
-69.84
-33.41
1.67
32.02
55.99
73.51
85.36
92.49
95.69
95.56
92.77
88.14
82.70
77.43
72.99
69.62
67.20
65.36
63.79
62.42
61.39
60.96
61.21
61.87
62.39
62.03
60.17
56.55
51.40
45.30
39.06
33.39
28.70
24.95
21.73
18.35
14.24
9.12
3.17
-3.04
-8.80
-13.55
-17.21
-20.11
-22.97
-26.51
-31.17
-37.00
-43.58
-50.27
-56.46
-61.79
-66.33
-70.54
-75.17
-81.08
-88.99
-99.11
-110.76
-122.24
-130.89
-133.74
-128.37
-113.80
-90.96
-62.51
-32.03
-3.01
22.09
42.16
57.35
68.47
76.50
82.15
85.80
87.57
87.55
85.90
82.99
79.30
75.35
71.60
68.32
65.72
63.90
62.97
62.93
63.64
64.66
65.31
64.80
62.55
58.38
52.67
46.18
39.80
34.19
29.58
25.71
22.05
18.01
13.26
7.83
2.06
-3.57
-8.66
-13.14
-17.27
-21.46
-26.09
-31.33
-37.15
-43.27
-49.39
-55.21
-60.58
-65.48
-70.14
-75.04
-80.90
-88.45
-98.03
-109.16
-120.20
-128.55
-131.29
-126.06
-112.00
-90.10
-62.94
-33.91
-6.16
18.12
38.00
53.55
65.32
73.87
79.52
82.43
82.75
80.82
77.20
72.64
67.86
63.48
59.91
57.33
55.70
54.91
54.77
55.05
55.48
55.69
55.27
53.80
51.03
47.08
42.36
37.46
32.86
28.75
24.88
20.81
16.09
10.62
4.68
-1.21
-6.48
-10.87
-14.48
-17.76
-21.24
-25.34
-30.16
-35.46
-40.78
-45.67
-49.94
-53.74
-57.58
-62.12
-67.96
-75.38
-84.11
-93.20
-101.01
-105.46
-104.42
-96.40
-81.13
-59.74
-34.66
-8.83
15.03
35.13
50.74
61.98
69.36
73.34
74.23
72.30
68.04
62.24
55.93
50.17
45.70
42.82
41.38
41.00
41.24
41.80
42.53
43.29
43.83
43.74
42.62
40.20
36.59
32.17
27.46
22.85
18.43
14.00
9.27
4.07
-1.51
-7.10
-12.33
-16.93
-20.94
-24.68
-28.61
-33.14
-38.40
-44.23
-50.18
-55.74
-60.58
-64.77
-68.77
-73.34
-79.31
-87.24
-97.07
-107.83
-117.63
-123.89
-123.98
-116.02
-99.59
-75.99
-47.93
-18.77
8.46
31.75
50.28
64.19
74.15
80.89
84.97
86.80
86.72
85.05
82.19
78.53
74.50
70.45
66.63
63.23
60.39
58.18
56.69
55.94
55.79
55.92
55.83
54.99
52.96
49.59
45.07
39.84
34.45
29.36
24.77
20.61
16.53
12.18
7.29
1.91
-3.65
-8.91
-13.47
-17.27
-20.62
-24.10
-28.33
-33.66
-40.00
-46.89
-53.65
-59.63
-64.50
-68.38
-71.82
-75.70
-80.99
-88.47
-98.31
-109.75
-120.94
-129.20
-131.58
-125.78
-110.93
-88.00
-59.62
-29.31
-0.51
24.27
43.88
58.36
68.52
75.39
79.86
82.52
83.74
83.71
82.55
80.35
77.18
73.16
68.51
63.57
58.83
54.84
52.06
50.78
50.91
52.01
53.28
53.83
52.89
50.11
45.66
40.14
34.31
28.82
23.93
19.58
15.47
11.24
6.70
1.88
-3.01
-7.71
-12.00
-15.84
-19.38
-22.96
-26.96
-31.64
-36.95
-42.57
-47.96
-52.64
-56.38
-59.39
-62.29
-65.92
-71.10
-78.31
-87.45
-97.59
-106.96
-113.13
-113.61
-106.51
-91.26
-68.93
-42.01
-13.77
12.68
35.11
52.49
64.84
72.79
77.10
78.40
77.14
73.75
68.76
62.92
57.03
51.77
47.53
44.37
42.14
40.65
39.88
39.87
40.70
42.14
43.65
44.42
43.70
41.11
36.76
31.33
25.66
20.51
16.16
12.44
8.83
4.75
-0.12
-5.71
-11.59
-17.17
-21.99
-25.93
-29.29
-32.62
-36.52
-41.34
-47.04
-53.23
-59.32
-64.77
-69.35
-73.28
-77.20
-82.06
-88.78
-97.83
-108.79
-120.06
-129.03
-132.61
-128.20
-114.54
-92.26
-63.74
-32.41
-1.77
25.36
47.37
63.80
75.07
82.07
85.84
87.33
87.24
86.03
83.94
81.07
77.48
73.31
68.80
64.24
59.99
56.38
53.75
52.29
52.03
52.69
53.72
54.44
54.20
52.48
49.17
44.43
38.77
32.85
27.27
22.36
18.14
14.27
10.26
5.73
0.57
-4.97
-10.42
-15.31
-19.37
-22.68
-25.63
-28.79
-32.70
-37.70
-43.80
-50.62
-57.54
-63.90
-69.21
-73.45
-77.02
-80.75
-85.64
-92.57
-101.95
-113.34
-125.27
-135.21
-140.09
-137.09
-124.57
-102.72
-73.69
-41.01
-8.53
20.52
44.21
62.03
74.47
82.54
87.33
89.75
90.45
89.86
88.25
85.77
82.51
78.58
74.17
69.53
64.99
60.92
57.73
55.76
55.13
55.68
56.88
57.95
58.10
56.76
53.78
49.45
44.28
38.82
33.44
28.33
23.57
19.18
15.16
11.44
7.81
3.98
-0.29
-5.08
-10.21
-15.31
-19.96
-23.90
-27.15
-30.08
-33.23
-37.11
-42.02
-47.90
-54.33
-60.69
-66.40
-71.11
-74.95
-78.46
-82.54
-88.19
-96.14
-106.39
-117.86
-128.24
-134.43
-133.39
-123.15
-103.53
-76.35
-44.83
-12.68
16.89
41.75
61.01
74.73
83.50
88.16
89.49
88.22
84.96
80.31
74.89
69.33
64.14
59.68
56.05
53.16
50.93
49.39
48.64
48.79
49.72
51.03
52.06
52.08
50.57
47.39
42.78
37.31
31.66
26.40
21.76
17.65
13.65
9.28
4.33
-1.10
-6.56
-11.55
-15.77
-19.35
-22.75
-26.57
-31.30
-37.05
-43.55
-50.22
-56.41
-61.61
-65.65
-68.78
-71.73
-75.48
-81.06
-89.10
-99.48
-110.93
-121.13
-127.02
-125.64
-115.04
-95.07
-67.56
-35.88
-3.94
24.85
48.37
65.94
78.03
85.62
89.69
91.04
90.21
87.65
83.86
79.35
74.53
69.69
64.99
60.56
56.60
53.39
51.28
50.50
51.03
52.57
54.43
55.83
55.95
54.30
50.80
45.78
39.86
33.73
27.90
22.70
18.17
14.15
10.39
6.58
2.45
-2.17
-7.25
-12.52
-17.55
-22.01
-25.77
-29.13
-32.66
-36.99
-42.48
-49.04
-56.11
-62.92
-68.76
-73.33
-76.84
-79.99
-83.77
-89.17
-96.82
-106.65
-117.63
-127.66
-133.90
-133.36
-123.86
-104.84
-77.73
-45.66
-12.59
17.80
43.01
62.05
75.23
83.57
88.21
90.09
89.86
87.96
84.80
80.78
76.29
71.68
67.17
62.89
58.93
55.36
52.38
50.22
49.09
49.02
49.70
50.51
50.69
49.57
46.89
42.81
37.89
32.77
27.96
23.62
19.55
15.41
10.82
5.64
0.01
-5.67
-10.91
-15.31
-18.81
-21.72
-24.63
-28.21
-32.89
-38.72
-45.30
-51.95
-57.94
-62.77
-66.31
-68.93
-71.44
-74.93
-80.43
-88.46
-98.57
-109.08
-117.26
-119.94
-114.57
-99.97
-76.96
-48.14
-17.13
12.39
37.68
57.24
70.93
79.43
83.76
84.86
83.42
79.91
74.82
68.73
62.30
56.15
50.76
46.39
43.12
40.98
39.93
39.98
40.93
42.38
43.71
44.21
43.34
40.93
37.24
32.80
28.18
23.77
19.62
15.49
11.05
6.06
0.51
-5.29
-10.93
-16.03
-20.48
-24.43
-28.29
-32.49
-37.28
-42.63
-48.21
-53.57
-58.36
-62.50
-66.26
-70.21
-75.10
-81.60
-89.99
-99.79
-109.51
-116.78
-118.79
-113.13
-98.67
-76.07
-47.76
-17.25
11.88
36.89
56.42
70.40
79.54
84.81
87.02
86.69
84.22
80.04
74.75
69.03
63.49
58.54
54.31
50.76
47.91
45.90
44.93
45.10
46.16
47.49
48.24
47.65
45.37
41.54
36.72
31.66
26.92
22.77
19.11
15.56
11.65
7.02
1.58
-4.47
-10.66
-16.47
-21.56
-25.87
-29.72
-33.58
-37.91
-42.95
-48.62
-54.57
-60.33
-65.47
-69.79
-73.49
-77.19
-81.81
-88.24
-96.84
-106.97
-116.80
-123.52
-124.05
-116.06
-98.78
-73.46
-43.03
-11.28
18.23
43.00
61.94
75.16
83.45
87.84
89.22
88.28
85.63
81.81
77.31
72.55
67.78
63.19
58.87
54.94
51.55
48.87
47.08
46.24
46.28
46.94
47.72
48.00
47.23
45.05
41.48
36.84
31.70
26.63
22.01
17.97
14.40
11.05
7.63
3.93
-0.16
-4.62
-9.28
-13.90
-18.19
-21.94
-25.15
-28.02
-30.95
-34.39
-38.62
-43.63
-49.11
-54.55
-59.43
-63.49
-66.82
-69.90
-73.47
-78.35
-85.17
-94.07
-104.43
-114.67
-122.39
-124.81
-119.57
-105.50
-83.20
-54.96
-24.21
5.55
31.55
52.26
67.39
77.45
83.22
85.42
84.67
81.55
76.71
70.94
65.03
59.62
55.07
51.50
48.82
46.95
45.88
45.68
46.36
47.76
49.43
50.72
50.92
49.54
46.45
41.91
36.53
31.07
26.12
22.00
18.60
15.45
11.97
7.70
2.54
-3.19
-8.95
-14.17
-18.55
-22.20
-25.54
-29.15
-33.42
-38.47
-44.02
-49.60
-54.71
-59.11
-62.84
-66.30
-70.17
-75.23
-82.14
-91.04
-101.30
-111.26
-118.41
-119.94
-113.56
-98.33
-75.09
-46.40
-15.71
13.47
38.56
58.25
72.46
81.84
87.27
89.52
89.16
86.66
82.52
77.40
71.98
66.84
62.33
58.57
55.52
53.11
51.34
50.28
49.98
50.33
50.99
51.48
51.25
49.91
47.34
43.73
39.40
34.75
30.01
25.28
20.58
15.90
11.27
6.69
2.15
-2.47
-7.24
-12.13
-16.91
-21.24
-24.93
-28.05
-31.00
-34.31
-38.46
-43.59
-49.47
-55.63
-61.50
-66.64
-70.88
-74.30
-77.40
-80.92
-85.74
-92.59
-101.72
-112.51
-123.32
-131.60
-134.42
-129.27
-114.85
-91.65
-62.02
-29.52
1.97
29.35
50.95
66.61
77.21
83.97
87.92
89.65
89.40
87.38
83.88
79.37
74.37
69.36
64.72
60.76
57.76
55.90
55.24
55.63
56.69
57.88
58.55
58.21
56.53
53.49
49.29
44.35
39.17
34.18
29.68
25.75
22.26
18.86
15.11
10.66
5.36
-0.57
-6.60
-12.11
-16.61
-19.99
-22.59
-25.07
-28.14
-32.27
-37.58
-43.79
-50.33
-56.59
-62.03
-66.40
-69.88
-73.00
-76.69
-81.90
-89.29
-98.76
-109.22
-118.49
-123.67
-121.96
-111.54
-92.25
-65.89
-35.73
-5.54
21.42
43.19
59.27
70.21
77.01
80.62
81.75
80.88
78.49
75.06
71.13
67.11
63.26
59.72
56.51
53.69
51.31
49.52
48.44
48.09
48.32
48.76
48.83
47.97
45.78
42.22
37.58
32.36
27.09
22.11
17.58
13.46
9.61
5.86
2.04
-1.99
-6.24
-10.61
-14.86
-18.76
-22.25
-25.47
-28.77
-32.50
-36.86
-41.73
-46.70
-51.29
-55.09
-58.00
-60.28
-62.55
-65.68
-70.49
-77.54
-86.80
-97.42
-107.58
-114.80
-116.41
-110.33
-95.76
-73.58
-46.28
-17.23
10.17
33.43
51.38
64.11
72.40
77.19
79.11
78.53
75.73
71.18
65.60
59.82
54.55
50.23
46.97
44.70
43.27
42.63
42.73
43.47
44.59
45.69
46.20
45.57
43.50
40.02
35.53
30.67
26.06
22.00
18.43
14.96
11.16
6.78
1.83
-3.40
-8.59
-13.49
-18.03
-22.31
-26.59
-31.12
-36.05
-41.38
-46.88
-52.17
-56.91
-61.01
-64.74
-68.75
-73.90
-80.94
-90.01
-100.33
-110.08
-116.63
-117.21
-109.75
-93.73
-70.39
-42.53
-13.58
13.27
35.96
53.67
66.59
75.44
80.94
83.63
83.88
81.99
78.38
73.55
68.16
62.79
57.92
53.85
50.68
48.43
47.05
46.51
46.76
47.63
48.72
49.47
49.23
47.53
44.27
39.81
34.80
29.95
25.73
22.17
18.96
15.48
11.22
5.93
-0.20
-6.65
-12.70
-17.76
-21.64
-24.63
-27.41
-30.80
-35.40
-41.33
-48.19
-55.20
-61.53
-66.60
-70.35
-73.27
-76.29
-80.50
-86.84
-95.69
-106.52
-117.68
-126.63
-130.31
-126.12
-112.73
-90.66
-62.23
-30.95
-0.54
26.07
47.26
62.76
73.26
79.81
83.38
84.62
83.99
81.85
78.59
74.63
70.40
66.21
62.22
58.53
55.21
52.45
50.53
49.69
50.01
51.20
52.64
53.55
53.18
51.14
47.53
42.85
37.81
33.02
28.73
24.82
20.86
16.38
11.09
5.06
-1.31
-7.40
-12.70
-16.98
-20.45
-23.68
-27.35
-31.95
-37.58
-43.90
-50.31
-56.15
-61.03
-64.98
-68.43
-72.16
-77.07
-83.93
-93.03
-103.78
-114.58
-122.87
-125.68
-120.53
-106.31
-83.78
-55.50
-25.05
3.99
28.96
48.57
62.80
72.36
78.24
81.22
81.88
80.62
77.88
74.16
69.95
65.73
61.76
58.15
54.94
52.21
50.12
48.88
48.65
49.34
50.52
51.53
51.61
50.19
47.07
42.48
37.01
31.34
26.05
21.40
17.31
13.41
9.32
4.79
-0.13
-5.17
-9.94
-14.17
-17.90
-21.43
-25.20
-29.63
-34.85
-40.67
-46.64
-52.24
-57.07
-60.99
-64.27
-67.48
-71.44
-76.95
-84.51
-93.91
-103.96
-112.48
-116.72
-114.12
-103.17
-84.09
-58.80
-30.44
-2.34
22.78
43.39
59.06
70.06
76.88
79.95
79.64
76.48
71.23
64.93
58.59
53.02
48.62
45.48
43.44
42.38
42.25
42.99
44.43
46.15
47.53
47.89
46.74
44.01
39.98
35.23
30.35
25.76
21.59
17.65
13.67
9.40
4.77
-0.07
-4.82
-9.23
-13.18
-16.81
-20.39
-24.29
-28.73
-33.70
-38.96
-44.15
-48.94
-53.17
-56.95
-60.67
-64.97
-70.54
-77.93
-87.22
-97.68
-107.59
-114.41
-115.43
-108.56
-93.23
-70.62
-43.45
-15.12
11.29
33.69
51.26
64.13
72.88
78.17
80.50
80.24
77.83
73.83
68.91
63.78
59.01
54.99
51.87
49.64
48.24
47.56
47.51
47.90
48.41
48.57
47.86
45.90
42.67
38.46
33.88
29.50
25.62
22.17
18.73
14.78
9.97
4.30
-1.87
-8.02
-13.73
-18.86
-23.61
-28.36
-33.49
-39.18
-45.42
-51.95
-58.43
-64.50
-69.86
-74.48
-78.64
-83.02
-88.53
-95.94
-105.42
-116.07
-125.80
-131.75
-131.10
-121.99
-104.31
-79.80
-51.51
-22.92
3.00
24.39
40.62
51.92
58.97
62.57
63.61
63.17
62.44
62.54
64.17
67.31
71.29
75.13
77.99
79.56
80.08
80.05
79.91
79.75
79.28
78.03
75.56
71.69
66.49
60.30
53.57
46.78
40.32
34.33
28.78
23.49
18.18
12.74
7.22
1.85
-3.11
-7.57
-11.65
-15.72
-20.17
-25.31
-31.19
-37.58
-44.04
-50.10
-55.42
-59.96
-64.05
-68.37
-73.79
-81.08
-90.46
-101.22
-111.60
-118.98
-120.60
-114.42
-99.82
-77.93
-51.30
-23.15
3.49
26.50
44.93
58.82
68.74
75.39
79.28
80.70
79.84
76.97
72.57
67.28
61.87
56.98
53.03
50.14
48.21
47.05
46.54
46.65
47.36
48.50
49.62
50.05
49.14
46.54
42.36
37.22
31.94
27.15
23.12
19.61
16.10
12.10
7.40
2.16
-3.13
-7.99
-12.07
-15.42
-18.49
-21.92
-26.29
-31.86
-38.37
-45.15
-51.39
-56.48
-60.28
-63.20
-66.09
-69.96
-75.68
-83.72
-93.84
-104.90
-114.83
-120.94
-120.59
-111.97
-94.90
-70.89
-42.94
-14.50
11.40
32.89
49.38
61.24
69.28
74.26
76.66
76.76
74.87
71.39
66.95
62.24
57.83
54.07
51.07
48.75
47.05
46.01
45.68
46.09
46.99
47.87
48.04
46.88
44.14
40.05
35.29
30.62
26.55
23.14
20.00
16.56
12.39
7.43
2.03
-3.29
-8.09
-12.20
-15.83
-19.36
-23.20
-27.64
-32.65
-38.01
-43.34
-48.26
-52.52
-56.21
-59.72
-63.76
-69.14
-76.42
-85.61
-95.88
-105.43
-111.78
-112.41
-105.50
-90.60
-68.87
-42.88
-15.79
9.44
30.82
47.58
59.92
68.55
74.18
77.22
77.84
76.19
72.55
67.51
61.83
56.28
51.45
47.68
45.11
43.69
43.30
43.80
44.94
46.35
47.51
47.87
46.90
44.39
40.45
35.56
30.41
25.64
21.59
18.24
15.19
11.91
7.96
3.12
-2.49
-8.51
-14.41
-19.71
-24.08
-27.58
-30.57
-33.63
-37.31
-41.90
-47.27
-52.99
-58.52
-63.47
-67.79
-71.80
-76.16
-81.65
-88.90
-98.06
-108.46
-118.43
-125.48
-126.81
-120.23
-104.94
-81.94
-53.85
-24.12
3.97
28.07
47.18
61.43
71.58
78.44
82.59
84.31
83.79
81.31
77.44
72.89
68.38
64.40
61.09
58.39
56.13
54.29
52.94
52.26
52.27
52.74
53.21
53.03
51.69
48.95
44.91
39.99
34.79
29.80
25.26
21.08
16.93
12.37
7.15
1.27
-4.88
-10.73
-15.74
-19.65
-22.63
-25.28
-28.40
-32.65
-38.28
-45.02
-52.10
-58.67
-64.12
-68.35
-71.86
-75.55
-80.44
-87.28
-96.33
-107.00
-117.79
-126.36
-129.93
-126.04
-113.40
-92.47
-65.43
-35.64
-6.61
18.90
39.45
54.84
65.71
72.98
77.45
79.61
79.69
77.94
74.65
70.34
65.64
61.10
57.09
53.68
50.79
48.35
46.45
45.36
45.28
46.07
47.10
47.46
46.24
43.01
37.93
31.75
25.35
19.40
14.20
9.68
5.64
2.01
-1.05
-3.32
-4.66
-5.22
-5.50
-6.17
-7.86
-10.93
-15.39
-20.96
-27.16
-33.49
-39.56
-45.13
-50.21
-55.09
-60.37
-66.82
-75.08
-85.29
-96.65
-107.26
-114.45
-115.39
-108.03
-91.87
-68.26
-40.02
-10.62
16.82
40.18
58.58
72.09
81.18
86.29
87.74
85.85
81.18
74.64
67.39
60.53
54.82
50.52
47.52
45.50
44.22
43.55
43.45
43.79
44.28
44.47
43.86
42.13
39.27
35.51
31.25
26.87
22.56
18.28
13.83
8.99
3.65
-2.07
-7.85
-13.36
-18.33
-22.76
-26.85
-30.95
-35.41
-40.40
-45.84
-51.41
-56.67
-61.22
-64.97
-68.18
-71.54
-75.97
-82.33
-90.94
-101.23
-111.54
-119.34
-121.85
-116.83
-103.36
-82.20
-55.64
-26.77
1.27
26.06
46.24
61.45
72.01
78.59
81.95
82.76
81.62
79.06
75.57
71.61
67.56
63.74
60.36
57.53
55.31
53.71
52.77
52.49
52.76
53.34
53.74
53.37
51.71
48.50
43.90
38.46
32.95
28.03
23.95
20.49
17.03
12.89
7.68
1.45
-5.28
-11.74
-17.29
-21.63
-24.93
-27.73
-30.76
-34.61
-39.61
-45.62
-52.20
-58.71
-64.57
-69.47
-73.49
-77.17
-81.42
-87.27
-95.34
-105.42
-116.05
-124.66
-128.07
-123.55
-109.81
-87.52
-59.21
-28.46
1.17
26.98
47.61
62.87
73.45
80.29
84.33
86.28
86.57
85.49
83.24
80.05
76.20
71.99
67.73
63.66
60.00
56.91
54.55
53.04
52.36
52.27
52.30
51.85
50.34
47.46
43.28
38.24
32.96
27.99
23.61
19.72
15.93
11.77
6.92
1.39
-4.48
-10.16
-15.16
-19.20
-22.37
-25.08
-27.98
-31.70
-36.57
-42.52
-49.02
-55.31
-60.68
-64.78
-67.82
-70.50
-73.87
-78.96
-86.34
-95.84
-106.20
-115.21
-120.09
-118.17
-107.83
-89.02
-63.50
-34.32
-5.03
21.30
42.69
58.46
68.92
74.88
77.29
76.95
74.54
70.67
65.95
60.92
56.04
51.65
47.91
44.92
42.75
41.49
41.22
41.95
43.49
45.40
47.04
47.75
47.05
44.81
41.34
37.15
32.76
28.44
24.17
19.69
14.83
9.55
4.05
-1.39
-6.56
-11.46
-16.25
-21.18
-26.44
-32.02
-37.68
-43.10
-48.01
-52.28
-56.04
-59.65
-63.70
-68.83
-75.60
-84.23
-94.20
-104.13
-111.73
-114.32
-109.57
-96.38
-75.36
-48.86
-20.22
7.22
30.93
49.72
63.55
73.06
79.06
82.19
82.83
81.27
77.85
73.06
67.51
61.85
56.59
52.11
48.58
46.05
44.49
43.88
44.11
45.02
46.20
47.08
46.97
45.34
41.98
37.18
31.57
25.92
20.84
16.58
12.95
9.45
5.59
1.02
-4.20
-9.71
-14.98
-19.58
-23.43
-26.82
-30.29
-34.36
-39.28
-44.90
-50.72
-56.18
-60.91
-64.91
-68.60
-72.65
-77.83
-84.73
-93.58
-103.99
-114.71
-123.64
-128.13
-125.64
-114.51
-94.70
-67.95
-37.42
-6.78
20.74
43.13
59.73
71.00
77.94
81.61
82.86
82.26
80.26
77.20
73.45
69.34
65.12
60.99
57.08
53.56
50.64
48.58
47.58
47.68
48.61
49.78
50.41
49.78
47.48
43.60
38.70
33.55
28.79
24.75
21.29
17.96
14.26
9.81
4.57
-1.18
-6.97
-12.29
-16.78
-20.41
-23.48
-26.54
-30.17
-34.72
-40.16
-46.07
-51.80
-56.80
-60.85
-64.17
-67.40
-71.43
-77.12
-84.96
-94.73
-105.23
-114.31
-119.26
-117.47
-107.30
-88.71
-63.42
-34.51
-5.54
20.34
41.17
56.30
66.16
71.75
74.03
73.71
71.17
66.65
60.54
53.43
46.08
39.25
33.49
29.04
25.86
23.77
22.50
21.73
21.16
20.44
19.20
17.14
14.06
9.92
4.78
-1.19
-7.83
-15.01
-22.71
-30.92
-39.48
-47.83
-54.85
-58.96
-58.51
-52.35
-40.32
-23.43
-3.62
16.85
35.96
52.33
65.21
74.31
79.54
80.91
78.59
73.08
65.31
56.47
47.85
40.55
35.24
32.08
30.86
31.06
32.11
33.50
34.89
36.07
36.90
37.21
36.82
35.50
33.18
29.98
26.26
22.51
19.20
16.53
14.35
12.20
9.57
6.12
1.90
-2.68
-7.01
-10.57
-13.21
-15.11
-16.74
-18.65
-21.20
-24.51
-28.40
-32.54
-36.59
-40.27
-43.61
-46.85
-50.50
-55.04
-60.76
-67.53
-74.83
-81.90
-88.08
-93.10
-97.17
-101.04
-105.73
-112.28
-121.35
-132.71
-144.91
-155.25
-160.20
-156.44
-141.90
-116.68
-83.17
-45.36
-7.77
25.84
53.16
73.51
87.52
96.41
101.53
103.91
104.25
102.97
100.39
96.80
92.55
88.02
83.51
79.23
75.34
72.00
69.41
67.76
67.08
67.18
67.60
67.65
66.70
64.33
60.44
55.28
49.44
43.52
38.06
33.33
29.27
25.58
21.86
17.73
12.97
7.52
1.60
-4.43
-10.12
-15.14
-19.36
-22.96
-26.43
-30.30
-34.97
-40.49
-46.54
-52.52
-57.86
-62.26
-65.77
-68.84
-72.26
-76.92
-83.62
-92.67
-103.53
-114.63
-123.45
-127.07
-122.97
-109.89
-88.35
-60.59
-29.95
0.06
26.62
48.09
64.03
74.84
81.31
84.21
84.19
81.80
77.60
72.29
66.56
61.09
56.31
52.48
49.61
47.61
46.39
45.85
45.85
46.14
46.36
46.06
44.88
42.62
39.35
35.37
31.06
26.75
22.53
18.31
13.85
8.99
3.73
-1.70
-6.98
-11.84
-16.29
-20.56
-25.08
-30.17
-35.88
-41.93
-47.79
-52.95
-57.14
-60.53
-63.70
-67.54
-72.94
-80.46
-89.98
-100.40
-109.70
-115.21
-114.34
-105.38
-88.14
-64.14
-36.25
-7.87
18.01
39.46
55.78
67.28
74.72
78.90
80.30
79.22
76.00
71.21
65.70
60.38
55.93
52.63
50.30
48.59
47.21
46.07
45.26
44.91
44.92
44.94
44.39
42.76
39.75
35.44
30.23
24.65
19.18
14.00
9.04
4.07
-1.03
-6.16
-10.99
-15.20
-18.70
-21.82
-25.16
-29.34
-34.61
-40.71
-47.02
-52.86
-57.84
-62.08
-66.10
-70.70
-76.67
-84.58
-94.46
-105.57
-116.27
-124.05
-126.14
-120.30
-105.61
-83.00
-55.04
-25.21
3.07
27.36
46.50
60.54
70.27
76.64
80.41
82.05
81.81
79.88
76.60
72.43
67.91
63.53
59.61
56.29
53.63
51.72
50.67
50.59
51.37
52.55
53.40
53.12
51.14
47.40
42.36
36.79
31.41
26.58
22.20
17.89
13.23
8.09
2.69
-2.56
-7.28
-11.36
-15.01
-18.64
-22.70
-27.42
-32.78
-38.50
-44.20
-49.56
-54.46
-59.05
-63.76
-69.19
-75.93
-84.33
-94.14
-104.23
-112.67
-117.02
-115.02
-105.35
-88.12
-64.94
-38.46
-11.61
13.15
34.24
51.06
63.63
72.25
77.23
78.78
77.20
72.99
67.03
60.37
54.16
49.24
46.00
44.41
44.12
44.68
45.67
46.72
47.46
47.58
46.78
44.99
42.32
39.05
35.45
31.64
27.60
23.19
18.39
13.29
8.14
3.17
-1.49
-5.90
-10.25
-14.84
-19.86
-25.38
-31.28
-37.31
-43.18
-48.65
-53.63
-58.20
-62.71
-67.70
-73.85
-81.73
-91.49
-102.46
-112.99
-120.60
-122.55
-116.72
-102.37
-80.51
-53.61
-24.90
2.58
26.65
46.29
61.39
72.39
79.88
84.39
86.34
86.10
84.03
80.54
76.06
71.07
66.09
61.57
57.89
55.28
53.82
53.42
53.85
54.74
55.57
55.75
54.71
52.10
47.96
42.68
36.94
31.39
26.39
21.90
17.51
12.74
7.30
1.27
-4.92
-10.74
-15.85
-20.27
-24.40
-28.83
-34.04
-40.13
-46.83
-53.62
-59.94
-65.44
-70.14
-74.39
-78.85
-84.35
-91.71
-101.37
-112.95
-124.94
-134.69
-139.00
-135.06
-121.52
-99.06
-70.22
-38.68
-8.05
19.03
41.29
58.62
71.60
80.97
87.35
91.17
92.82
92.69
91.15
88.57
85.27
81.51
77.54
73.62
70.03
67.05
64.88
63.63
63.23
63.43
63.78
63.70
62.62
60.12
56.13
50.97
45.19
39.43
34.15
29.48
25.25
21.08
16.56
11.44
5.71
-0.39
-6.45
-12.02
-16.83
-20.90
-24.63
-28.60
-33.39
-39.26
-46.02
-53.04
-59.56
-65.02
-69.27
-72.73
-76.23
-80.82
-87.43
-96.57
-107.94
-120.24
-131.13
-137.61
-136.79
-126.80
-107.50
-80.72
-49.71
-18.24
10.43
34.32
52.80
66.32
75.84
82.27
86.31
88.32
88.49
86.95
83.93
79.78
74.92
69.85
65.01
60.76
57.35
55.00
53.83
53.80
54.67
55.93
56.87
56.75
55.05
51.63
46.81
41.18
35.47
30.22
25.72
21.92
18.51
15.07
11.20
6.70
1.56
-3.94
-9.34
-14.13
-18.03
-21.05
-23.62
-26.36
-29.84
-34.35
-39.72
-45.45
-50.92
-55.68
-59.64
-63.09
-66.60
-70.85
-76.47
-83.86
-92.91
-102.72
-111.48
-116.66
-115.63
-106.54
-89.04
-64.61
-36.17
-7.22
19.20
41.16
58.02
70.06
77.94
82.17
83.10
81.05
76.53
70.39
63.64
57.28
51.96
47.94
45.11
43.25
42.19
41.81
42.12
43.01
44.22
45.26
45.56
44.59
42.05
38.03
32.97
27.56
22.49
18.16
14.54
11.21
7.58
3.16
-2.14
-8.00
-13.79
-18.89
-22.96
-26.12
-28.87
-31.96
-36.02
-41.32
-47.59
-54.16
-60.19
-65.07
-68.67
-71.38
-74.06
-77.72
-83.30
-91.35
-101.65
-112.95
-122.96
-128.66
-127.09
-116.34
-96.32
-68.97
-37.68
-6.35
21.76
44.65
61.73
73.48
80.90
85.02
86.66
86.39
84.59
81.54
77.54
72.90
67.99
63.12
58.54
54.48
51.15
48.83
47.80
48.21
49.84
52.05
53.87
54.28
52.60
48.66
42.93
36.29
29.69
23.90
19.27
15.66
12.56
9.38
5.58
0.94
-4.42
-10.10
-15.59
-20.45
-24.54
-28.00
-31.23
-34.74
-38.92
-43.93
-49.61
-55.52
-61.10
-65.89
-69.73
-72.91
-76.21
-80.63
-87.16
-96.16
-107.08
-118.13
-126.55
-129.21
-123.57
-108.53
-84.91
-55.35
-23.47
7.00
33.28
53.95
68.91
78.91
84.97
87.97
88.44
86.75
83.22
78.32
72.69
67.01
61.82
57.40
53.80
50.96
48.87
47.59
47.20
47.61
48.46
49.15
48.98
47.40
44.24
39.75
34.57
29.37
24.70
20.77
17.40
14.09
10.28
5.52
-0.26
-6.69
-13.06
-18.65
-23.02
-26.21
-28.74
-31.39
-34.84
-39.44
-45.08
-51.21
-57.12
-62.15
-65.95
-68.65
-70.87
-73.62
-78.00
-84.78
-93.96
-104.46
-114.09
-119.93
-119.11
-109.65
-91.23
-65.34
-35.02
-3.94
24.50
48.03
65.71
77.76
84.99
88.34
88.51
85.99
81.24
74.86
67.64
60.47
54.14
49.18
45.76
43.78
42.97
43.04
43.72
44.75
45.83
46.56
46.41
44.94
41.90
37.43
32.03
26.38
21.05
16.29
11.93
7.53
2.72
-2.62
-8.22
-13.66
-18.57
-22.88
-26.85
-30.94
-35.50
-40.62
-46.05
-51.33
-56.03
-59.89
-63.05
-65.98
-69.44
-74.29
-81.22
-90.39
-101.10
-111.56
-119.13
-120.85
-114.37
-98.78
-75.08
-45.92
-14.93
14.41
39.59
59.40
73.79
83.40
89.02
91.29
90.69
87.68
82.84
76.94
70.76
64.93
59.78
55.37
51.57
48.36
45.89
44.42
44.18
45.11
46.67
48.04
48.28
46.73
43.23
38.18
32.33
26.47
21.18
16.62
12.53
8.43
3.84
-1.48
-7.47
-13.72
-19.67
-24.88
-29.22
-32.94
-36.57
-40.72
-45.77
-51.68
-58.00
-64.08
-69.35
-73.56
-76.94
-80.21
-84.30
-90.13
-98.14
-107.90
-117.86
-125.50
-127.79
-122.13
-107.23
-83.66
-53.86
-21.40
9.99
37.36
59.10
74.92
85.47
91.73
94.66
94.96
93.14
89.63
84.93
79.65
74.32
69.36
64.90
60.91
57.34
54.31
52.11
51.10
51.38
52.60
53.95
54.39
53.13
49.86
44.90
39.00
33.03
27.63
23.03
19.06
15.26
11.15
6.41
1.02
-4.72
-10.38
-15.59
-20.26
-24.61
-29.15
-34.33
-40.34
-46.99
-53.77
-60.09
-65.54
-70.12
-74.21
-78.54
-83.96
-91.16
-100.33
-110.80
-120.84
-127.78
-128.66
-121.13
-104.32
-79.33
-48.98
-17.03
12.95
38.43
58.22
72.34
81.50
86.60
88.43
87.68
84.92
80.75
75.72
70.32
64.94
59.83
55.22
51.25
48.12
46.00
45.05
45.24
46.27
47.55
48.34
47.94
45.96
42.47
37.96
33.04
28.24
23.78
19.50
15.06
10.14
4.67
-1.15
-6.91
-12.16
-16.67
-20.44
-23.83
-27.34
-31.45
-36.36
-41.89
-47.60
-52.91
-57.42
-61.11
-64.41
-68.08
-73.03
-79.91
-88.80
-98.84
-108.13
-114.01
-113.74
-105.34
-88.33
-64.08
-35.43
-5.90
21.28
43.97
61.26
73.27
80.60
83.92
83.73
80.51
74.89
67.78
60.24
53.30
47.73
43.85
41.58
40.66
40.74
41.53
42.73
43.99
44.87
44.89
43.66
41.09
37.38
32.95
28.24
23.57
18.99
14.38
9.58
4.45
-0.99
-6.54
-11.94
-16.94
-21.42
-25.50
-29.49
-33.80
-38.74
-44.36
-50.37
-56.30
-61.69
-66.37
-70.61
-75.08
-80.66
-88.12
-97.68
-108.68
-119.42
-127.30
-129.40
-123.32
-108.06
-84.46
-55.10
-23.53
6.69
32.90
53.73
69.00
79.32
85.57
88.57
88.94
87.19
83.79
79.33
74.40
69.59
65.30
61.73
58.88
56.71
55.24
54.57
54.78
55.72
56.89
57.50
56.75
54.19
49.84
44.26
38.27
32.61
27.67
23.38
19.35
15.05
10.12
4.47
-1.64
-7.73
-13.33
-18.16
-22.31
-26.21
-30.46
-35.51
-41.47
-48.08
-54.71
-60.81
-65.99
-70.32
-74.29
-78.74
-84.63
-92.70
-103.10
-114.95
-126.27
-134.15
-135.51
-128.02
-110.99
-85.68
-55.06
-22.89
7.32
33.10
53.34
68.11
78.19
84.55
88.04
89.29
88.76
86.81
83.84
80.19
76.19
72.09
68.13
64.46
61.33
58.95
57.55
57.23
57.85
58.97
59.88
59.74
57.91
54.17
48.78
42.45
36.06
30.33
25.59
21.71
18.22
14.56
10.28
5.21
-0.53
-6.57
-12.42
-17.67
-22.13
-25.97
-29.66
-33.79
-38.77
-44.61
-50.90
-56.94
-62.14
-66.28
-69.65
-72.97
-77.16
-83.09
-91.31
-101.79
-113.60
-124.85
-132.79
-134.42
-127.35
-110.75
-85.77
-55.34
-23.32
6.64
32.02
51.82
66.30
76.32
82.75
86.15
86.80
84.90
80.91
75.57
69.81
64.46
60.10
56.90
54.74
53.37
52.55
52.15
52.15
52.51
53.13
53.75
53.98
53.36
51.51
48.28
43.90
38.87
33.84
29.29
25.33
21.60
17.52
12.59
6.70
0.20
-6.16
-11.64
-15.80
-18.70
-20.94
-23.32
-26.60
-31.21
-37.04
-43.59
-50.12
-55.95
-60.69
-64.42
-67.65
-71.24
-76.19
-83.30
-92.79
-103.94
-114.93
-123.04
-125.25
-119.18
-103.95
-80.53
-51.57
-20.60
8.98
34.65
55.13
70.22
80.35
86.12
88.09
86.78
82.78
76.92
70.25
63.82
58.49
54.68
52.39
51.29
50.99
51.17
51.65
52.38
53.22
53.94
54.21
53.68
52.08
49.27
45.30
40.38
34.93
29.40
24.21
19.52
15.20
10.88
6.15
0.82
-4.96
-10.73
-15.96
-20.31
-23.83
-26.93
-30.24
-34.33
-39.52
-45.72
-52.47
-59.06
-64.84
-69.45
-73.04
-76.30
-80.27
-86.10
-94.55
-105.62
-118.18
-130.02
-138.10
-139.34
-131.48
-113.84
-87.71
-56.01
-22.58
8.93
35.82
56.79
71.83
81.79
87.86
91.08
92.18
91.57
89.47
86.14
81.93
77.33
72.76
68.52
64.74
61.48
58.86
57.12
56.50
57.01
58.29
59.54
59.83
58.39
54.92
49.67
43.34
36.77
30.74
25.68
21.60
18.18
14.82
10.95
6.17
0.50
-5.70
-11.84
