1629196813.00
64.000000
-0.00
-0.00
-0.00
-0.00
-0.00
-0.00
-0.00
-0.00
-0.00
-0.00
0.00
0.01
0.01
-0.00
-0.03
-0.05
-0.05
0.00
0.13
0.36
0.66
1.01
1.37
1.72
2.06
2.40
2.79
3.24
3.80
4.42
5.06
5.66
6.20
6.68
7.15
7.68
8.31
9.14
10.09
11.04
11.88
12.56
13.14
13.76
14.65
15.96
17.91
20.32
22.90
25.38
27.58
29.57
31.68
34.32
37.81
42.54
48.15
54.10
59.83
64.97
69.58
74.14
79.34
85.71
93.76
103.00
112.62
121.73
129.77
136.75
143.30
150.75
157.77
166.64
177.95
191.79
206.97
220.57
228.25
225.36
208.53
176.87
132.76
80.05
23.07
-34.94
-92.44
-149.16
-205.23
-260.37
-313.74
-363.87
-409.83
-450.91
-486.50
-515.74
-537.23
-549.22
-549.96
-538.37
-514.21
-478.67
-433.88
-382.45
-327.02
-269.84
-212.63
-156.66
-102.96
-52.38
-5.90
35.60
71.46
101.39
125.52
144.35
158.57
168.92
176.03
180.34
182.13
181.63
179.10
174.84
169.24
162.70
155.56
148.12
140.55
132.93
125.30
117.65
110.00
102.37
94.82
87.43
80.33
73.60
67.30
61.41
55.82
50.41
45.06
39.76
34.60
29.76
25.44
21.76
18.65
15.89
13.16
10.21
6.97
3.61
0.51
-1.95
-3.54
-4.36
-4.82
-5.49
-6.80
-8.91
-11.53
-14.10
-16.05
-17.00
-17.00
-16.49
-16.05
-16.28
-17.66
-20.44
-24.46
-29.01
-32.66
-33.41
-29.32
-19.40
-4.37
13.22
29.78
41.92
47.83
47.76
43.64
37.96
32.66
28.49
25.27
22.49
19.86
17.58
16.04
15.41
15.48
15.61
15.11
13.62
11.19
8.22
5.23
2.51
0.07
-2.21
-4.33
-5.88
-6.08
-4.14
0.29
6.72
13.85
20.00
23.79
24.58
22.72
19.19
15.14
11.43
8.45
6.19
4.52
3.33
2.66
2.65
3.38
4.82
6.72
8.75
10.54
11.84
12.60
12.94
13.07
13.07
12.83
12.07
10.42
7.68
3.77
-0.94
-5.88
-10.37
-13.92
-16.37
-17.90
-18.91
-19.84
-21.02
-22.55
-24.27
-25.77
-26.44
-25.59
-22.64
-17.44
-10.42
-2.67
4.42
9.54
12.02
11.87
9.76
6.61
3.20
-0.06
-2.99
-5.59
-7.72
-9.10
-9.49
-8.85
-7.40
-5.68
-4.26
-3.56
-3.62
-4.14
-4.65
-4.82
-4.64
-4.44
-4.71
-5.83
-7.85
-10.42
-12.92
-14.75
-15.55
-15.40
-14.71
-14.11
-14.22
-15.44
-17.87
-21.05
-24.02
-25.53
-24.42
-19.96
-12.15
-1.68
10.39
22.43
32.94
40.98
46.23
48.90
49.43
48.23
45.60
41.80
37.16
32.13
27.30
23.18
20.06
17.96
16.66
15.79
15.04
14.20
13.27
12.31
11.37
10.25
8.64
6.14
2.48
-2.32
-7.96
-13.86
-19.37
-23.93
-27.38
-29.94
-32.23
-35.05
-39.16
-44.96
-52.24
-60.13
-67.15
-71.50
-71.51
-66.12
-55.32
-40.24
-22.93
-5.75
9.32
21.13
29.54
35.09
38.51
40.34
40.82
40.03
38.18
35.71
33.25
31.35
30.29
29.97
30.03
30.01
29.61
28.76
27.63
26.47
25.45
24.50
23.34
21.49
18.56
14.34
8.98
2.93
-3.22
-8.94
-13.89
-18.07
-21.72
-25.30
-29.31
-34.17
-40.14
-47.12
-54.54
-61.32
-65.95
-66.91
-63.02
-54.01
-40.68
-24.75
-8.36
6.55
18.72
27.76
33.92
37.78
39.88
40.59
40.14
38.81
36.93
34.96
33.28
32.11
31.42
31.00
30.57
29.92
28.99
27.83
26.57
25.25
23.85
22.18
20.01
17.09
13.27
8.52
3.04
-2.81
-8.55
-13.76
-18.19
-21.82
-24.97
-28.16
-31.97
-36.87
-43.04
-50.23
-57.63
-63.99
-67.76
-67.52
-62.46
-52.65
-39.17
-23.80
-8.52
5.01
15.77
23.45
28.17
30.34
30.36
28.67
25.86
22.64
19.71
17.60
16.50
16.21
16.32
16.43
16.34
16.11
15.90
15.80
15.72
15.34
14.23
12.04
8.61
4.10
-1.08
-6.40
-11.38
-15.82
-19.83
-23.83
-28.37
-33.96
-40.76
-48.46
-56.18
-62.49
-65.77
-64.61
-58.31
-47.23
-32.73
-16.86
-1.66
11.30
21.29
28.26
32.59
34.71
34.94
33.61
31.10
27.97
24.89
22.41
20.87
20.25
20.24
20.40
20.35
19.91
19.13
18.16
17.07
15.73
13.80
10.87
6.70
1.41
-4.52
-10.39
-15.67
-20.14
-24.09
-28.18
-33.19
-39.72
-47.82
-56.89
-65.58
-72.07
-74.52
-71.64
-63.14
-49.90
-33.74
-16.84
-1.14
12.14
22.57
30.35
35.86
39.49
41.40
41.77
40.83
39.04
36.97
35.17
33.93
33.24
32.84
32.42
31.82
31.09
30.39
29.83
29.33
28.54
26.97
24.16
19.85
14.13
7.42
0.37
-6.27
-11.94
-16.47
-20.20
-23.93
-28.63
-35.01
-43.06
-51.84
-59.57
-64.14
-63.81
-57.76
-46.35
-31.06
-13.97
2.79
17.57
29.39
38.00
43.62
46.67
47.60
46.80
44.70
41.84
38.83
36.21
34.36
33.35
32.93
32.69
32.24
31.37
30.09
28.62
27.24
26.06
25.01
23.72
21.71
18.51
13.89
8.03
1.44
-5.18
-11.20
-16.26
-20.43
-24.05
-27.74
-32.12
-37.72
-44.75
-52.83
-60.87
-67.18
-69.87
-67.45
-59.47
-46.69
-30.93
-14.44
0.78
13.45
23.06
29.66
33.58
35.18
34.88
33.18
30.68
28.02
25.67
23.88
22.60
21.67
20.90
20.19
19.58
19.10
18.76
18.37
17.63
16.20
13.76
10.23
5.77
0.75
-4.35
-9.09
-13.26
-16.96
-20.58
-24.75
-30.07
-36.86
-44.79
-52.79
-59.15
-61.96
-59.78
-52.12
-39.74
-24.37
-8.25
6.61
18.87
28.00
34.13
37.72
39.23
39.02
37.40
34.76
31.62
28.60
26.23
24.73
24.03
23.76
23.49
22.94
22.05
20.97
19.88
18.85
17.69
16.02
13.37
9.46
4.32
-1.60
-7.57
-12.90
-17.19
-20.55
-23.62
-27.27
-32.35
-39.29
-47.93
-57.42
-66.36
-72.96
-75.52
-72.80
-64.50
-51.41
-35.22
-18.11
-2.09
11.44
21.90
29.41
34.51
37.81
39.79
40.73
40.75
39.97
38.54
36.78
35.10
33.82
33.13
32.94
32.95
32.86
32.45
31.71
30.75
29.66
28.36
26.59
23.99
20.23
15.26
9.37
3.09
-2.89
-8.03
-12.16
-15.50
-18.60
-22.12
-26.63
-32.46
-39.63
-47.76
-56.04
-63.17
-67.54
-67.59
-62.33
-51.79
-37.15
-20.43
-3.90
10.61
22.11
30.43
35.98
39.35
41.06
41.48
40.85
39.45
37.57
35.51
33.59
32.05
31.06
30.70
30.89
31.47
32.13
32.54
32.36
31.36
29.44
26.68
23.28
19.56
15.79
12.15
8.64
5.11
1.35
-2.81
-7.42
-12.32
-17.26
-21.94
-26.22
-30.17
-34.17
-38.74
-44.43
-51.45
-59.40
-67.16
-72.98
-75.01
-71.83
-63.05
-49.53
-33.14
-16.23
-0.89
11.55
20.65
26.67
30.13
31.55
31.23
29.45
26.56
23.10
19.76
17.18
15.74
15.48
16.10
17.16
18.24
19.07
19.57
19.77
19.67
19.12
17.82
15.40
11.61
6.54
0.60
-5.49
-10.99
-15.41
-18.76
-21.49
-24.38
-28.22
-33.57
-40.54
-48.67
-56.92
-63.83
-67.71
-67.13
-61.34
-50.60
-36.19
-20.08
-4.36
9.31
20.02
27.60
32.35
34.76
35.28
34.33
32.31
29.69
26.98
24.66
23.00
22.06
21.67
21.50
21.28
20.84
20.24
19.66
19.23
18.84
18.09
16.37
13.13
8.18
1.86
-5.07
-11.71
-17.40
-21.97
-25.76
-29.43
-33.74
-39.25
-46.20
-54.36
-63.00
-70.85
-76.24
-77.51
-73.44
-63.71
-49.19
-31.73
-13.63
2.96
16.63
26.85
33.83
38.17
40.46
41.10
40.40
38.64
36.32
34.02
32.28
31.42
31.30
31.49
31.46
30.88
29.78
28.46
27.29
26.41
25.59
24.30
21.92
18.06
12.67
6.16
-0.81
-7.56
-13.56
-18.63
-23.01
-27.20
-31.89
-37.70
-45.01
-53.65
-62.79
-70.95
-76.28
-77.07
-72.25
-61.87
-47.09
-29.88
-12.44
3.44
16.68
26.95
34.39
39.31
42.01
42.76
41.98
40.22
38.15
36.34
35.10
34.39
33.96
33.51
32.90
32.18
31.51
31.08
30.91
30.82
30.37
29.00
26.16
21.55
15.30
7.97
0.42
-6.45
-12.08
-16.43
-19.96
-23.45
-27.75
-33.55
-41.22
-50.53
-60.60
-69.79
-76.00
-77.21
-72.17
-60.89
-44.75
-26.06
-7.36
9.26
22.58
32.28
38.64
42.17
43.44
42.93
41.15
38.59
35.77
33.15
31.04
29.53
28.53
27.90
27.50
27.27
27.17
27.12
26.88
26.10
24.37
21.43
17.25
12.09
6.39
0.67
-4.69
-9.56
-14.15
-18.98
-24.70
-31.73
-39.95
-48.43
-55.56
-59.38
-58.29
-51.62
-39.96
-24.98
-8.95
6.04
18.54
27.96
34.39
38.19
39.74
39.25
36.86
32.84
27.75
22.39
17.65
14.25
12.48
12.15
12.64
13.19
13.07
11.90
9.67
6.67
3.35
0.05
-3.14
-6.36
-9.89
-14.06
-19.06
-24.94
-31.53
-38.38
-44.72
-49.43
-51.18
-48.78
-41.64
-30.03
-15.21
0.95
16.42
29.60
39.60
46.26
49.90
51.00
50.01
47.29
43.24
38.40
33.48
29.25
26.32
24.87
24.62
24.87
24.77
23.70
21.46
18.30
14.72
11.22
7.98
4.84
1.40
-2.79
-8.03
-14.50
-22.13
-30.60
-39.22
-46.83
-51.94
-53.11
-49.40
-40.84
-28.48
-14.10
0.29
13.05
23.15
30.23
34.38
35.88
35.08
32.32
28.07
22.95
17.68
13.02
9.58
7.56
6.75
6.61
6.48
5.81
4.41
2.42
0.16
-2.03
-4.06
-6.13
-8.67
-12.22
-17.20
-23.74
-31.60
-40.03
-47.83
-53.47
-55.47
-52.80
-45.30
-33.78
-19.90
-5.66
7.19
17.48
24.82
29.25
31.02
30.34
27.45
22.74
16.95
11.13
6.32
3.19
1.82
1.70
2.03
2.15
1.79
1.08
0.31
-0.36
-1.14
-2.54
-5.20
-9.58
-15.78
-23.51
-32.11
-40.63
-47.82
-52.31
-52.87
-48.76
-40.09
-27.91
-13.90
0.10
12.57
22.64
29.94
34.42
36.14
35.16
31.74
26.51
20.46
14.75
10.34
7.71
6.68
6.55
6.46
5.68
3.94
1.40
-1.49
-4.27
-6.75
-9.11
-11.92
-15.92
-21.81
-29.79
-39.32
-49.04
-56.95
-60.93
-59.49
-52.23
-40.05
-24.84
-8.89
5.78
17.89
26.96
33.22
37.14
39.16
39.53
38.35
35.71
31.99
27.83
24.01
21.12
19.28
18.10
16.89
15.02
12.24
8.80
5.24
2.08
-0.56
-2.99
-5.92
-10.19
-16.50
-25.09
-35.61
-47.04
-57.85
-66.20
-70.40
-69.36
-62.83
-51.58
-37.17
-21.67
-7.03
5.31
14.69
21.21
25.34
27.61
28.33
27.60
25.52
22.36
18.66
15.11
12.33
10.73
10.48
11.57
13.93
17.45
21.99
27.26
32.79
37.99
42.19
44.76
45.30
43.70
40.24
35.54
30.31
25.18
20.39
15.76
10.69
4.40
-3.90
-14.76
-28.16
-43.20
-57.95
-69.70
-75.53
-73.30
-62.47
-44.39
-21.96
1.40
22.66
39.93
52.60
60.91
65.52
67.08
66.10
63.03
58.42
52.98
47.57
42.99
39.88
38.42
38.36
39.09
39.84
39.99
39.26
37.73
35.66
33.19
30.20
26.35
21.31
14.95
7.61
-0.03
-7.16
-13.17
-17.89
-21.66
-25.18
-29.24
-34.44
-41.02
-48.70
-56.69
-63.80
-68.56
-69.62
-66.04
-57.69
-45.34
-30.54
-15.17
-0.97
10.91
19.97
26.18
29.72
30.80
29.72
26.89
23.09
19.27
16.29
14.72
14.56
15.40
16.57
17.46
17.75
17.39
16.54
15.38
13.96
12.14
9.66
6.32
2.11
-2.69
-7.60
-12.23
-16.45
-20.48
-24.79
-29.91
-36.13
-43.40
-51.15
-58.35
-63.62
-65.51
-62.87
-55.36
-43.55
-28.96
-13.53
0.86
12.98
22.30
28.97
33.42
36.09
37.26
37.09
35.68
33.21
30.02
26.59
23.42
20.97
19.45
18.88
18.99
19.37
19.55
19.14
17.78
15.28
11.57
6.79
1.24
-4.60
-10.29
-15.51
-20.23
-24.73
-29.51
-35.11
-41.91
-49.78
-57.93
-64.86
-68.73
-67.91
-61.55
-50.00
-34.77
-18.09
-2.16
11.38
21.82
29.20
34.01
36.79
37.93
37.67
36.27
34.06
31.56
29.27
27.60
26.66
26.26
25.98
25.41
24.32
22.74
20.94
19.20
17.65
16.07
14.03
11.02
6.73
1.24
-4.98
-11.26
-16.99
-21.83
-25.86
-29.51
-33.45
-38.33
-44.58
-52.20
-60.58
-68.50
-74.31
-76.28
-73.14
-64.52
-51.18
-34.82
-17.60
-1.53
11.99
22.43
29.92
34.93
37.99
39.54
39.88
39.32
38.17
36.79
35.48
34.50
33.97
33.92
34.23
34.64
34.81
34.44
33.38
31.70
29.64
27.44
25.20
22.74
19.70
15.72
10.65
4.58
-2.12
-8.98
-15.53
-21.49
-26.81
-31.70
-36.59
-41.99
-48.30
-55.63
-63.63
-71.43
-77.72
-81.01
-80.00
-73.98
-63.15
-48.64
-32.24
-15.93
-1.34
10.50
19.31
25.23
28.63
29.87
29.31
27.38
24.66
21.85
19.58
18.24
17.85
18.16
18.76
19.35
19.79
20.13
20.44
20.61
20.34
19.14
16.64
12.71
7.65
2.01
-3.55
-8.63
-13.15
-17.45
-22.04
-27.45
-33.97
-41.56
-49.64
-57.17
-62.70
-64.74
-62.08
-54.30
-41.98
-26.64
-10.34
4.88
17.60
27.15
33.58
37.35
38.95
38.76
37.02
34.07
30.35
26.43
22.91
20.21
18.53
17.79
17.77
18.15
18.68
19.07
19.00
18.08
15.96
12.41
7.52
1.68
-4.49
-10.44
-15.85
-20.87
-25.98
-31.81
-38.84
-47.04
-55.69
-63.48
-68.66
-69.57
-65.09
-55.09
-40.56
-23.40
-5.89
9.98
22.95
32.63
39.27
43.40
45.50
45.84
44.65
42.26
39.21
36.19
33.82
32.44
31.97
31.96
31.90
31.42
30.51
29.38
28.30
27.26
25.94
23.77
20.22
15.10
8.68
1.59
-5.39
-11.71
-17.17
-21.95
-26.54
-31.55
-37.53
-44.82
-53.32
-62.35
-70.60
-76.28
-77.58
-73.23
-62.96
-47.70
-29.39
-10.39
7.12
21.70
32.81
40.63
45.75
48.72
49.90
49.46
47.60
44.71
41.42
38.49
36.55
35.87
36.25
37.14
37.85
37.85
36.94
35.24
33.08
30.79
28.52
26.13
23.30
19.63
14.92
9.26
3.02
-3.28
-9.21
-14.55
-19.32
-23.76
-28.16
-32.84
-38.15
-44.39
-51.70
-59.76
-67.61
-73.68
-76.05
-73.18
-64.40
-50.35
-32.74
-13.90
3.97
19.29
31.30
39.92
45.45
48.26
48.71
47.20
44.24
40.50
36.78
33.78
31.98
31.42
31.79
32.52
33.00
32.86
32.07
30.89
29.67
28.55
27.38
25.69
22.93
18.77
13.26
6.89
0.38
-5.58
-10.64
-14.87
-18.69
-22.73
-27.51
-33.41
-40.47
-48.40
-56.49
-63.57
-68.17
-68.85
-64.61
-55.31
-41.83
-25.89
-9.47
5.64
18.29
27.93
34.51
38.14
39.04
37.53
34.16
29.74
25.19
21.36
18.76
17.47
17.21
17.55
18.12
18.71
19.26
19.72
19.88
19.38
17.81
14.86
10.52
5.15
-0.62
-6.12
-10.86
-14.71
-17.95
-21.22
-25.32
-30.89
-38.20
-46.83
-55.62
-62.89
-66.76
-65.77
-59.31
-47.86
-32.89
-16.46
-0.64
13.02
23.69
31.22
35.91
38.17
38.36
36.82
33.92
30.20
26.32
22.94
20.56
19.40
19.31
19.92
20.73
21.31
21.40
20.93
19.96
18.59
16.81
14.48
11.31
7.04
1.65
-4.56
-10.95
-16.81
-21.62
-25.35
-28.41
-31.59
-35.74
-41.47
-48.92
-57.66
-66.66
-74.39
-79.06
-79.04
-73.35
-62.10
-46.57
-28.92
-11.46
3.91
16.19
25.24
31.49
35.49
37.74
38.58
38.33
37.35
36.03
34.75
33.73
33.04
32.60
32.26
31.83
31.15
30.20
29.07
27.89
26.80
25.78
24.56
22.69
19.71
15.37
9.79
3.44
-3.01
-8.91
-13.91
-18.01
-21.55
-25.08
-29.24
-34.56
-41.34
-49.48
-58.33
-66.60
-72.54
-74.29
-70.55
-61.04
-46.74
-29.65
-12.12
3.78
16.77
26.45
33.07
37.17
39.32
40.01
39.67
38.72
37.56
36.53
35.83
35.50
35.47
35.57
35.67
35.71
35.67
35.60
35.50
35.23
34.57
33.21
30.93
27.67
23.62
19.12
14.51
9.99
5.58
1.15
-3.50
-8.43
-13.57
-18.66
-23.45
-27.73
-31.59
-35.32
-39.41
-44.40
-50.64
-58.07
-66.04
-73.26
-78.03
-78.60
-73.77
-63.36
-48.41
-30.91
-13.21
2.67
15.53
25.10
31.72
35.95
38.24
38.90
38.20
36.57
34.52
32.62
31.21
30.43
30.24
30.58
31.45
32.85
34.67
36.59
38.05
38.47
37.43
34.82
30.95
26.31
21.52
17.03
13.06
9.53
6.13
2.53
-1.58
-6.24
-11.32
-16.56
-21.71
-26.62
-31.30
-35.91
-40.74
-46.10
-52.14
-58.63
-64.77
-69.16
-70.19
-66.55
-57.83
-44.81
-29.26
-13.36
1.03
12.80
21.68
27.99
32.16
34.52
35.15
34.18
31.86
28.79
25.76
23.59
22.80
23.45
25.09
26.94
28.23
28.49
27.70
26.19
24.46
22.80
21.14
19.13
16.33
12.51
7.73
2.40
-3.03
-8.17
-12.85
-17.14
-21.22
-25.35
-29.81
-34.87
-40.80
-47.70
-55.29
-62.76
-68.76
-71.69
-70.16
-63.50
-52.05
-37.09
-20.54
-4.40
9.73
20.96
29.09
34.45
37.60
39.07
39.23
38.38
36.78
34.77
32.75
31.15
30.23
30.03
30.35
30.86
31.24
31.30
30.95
30.19
29.02
27.43
25.39
22.82
19.67
15.90
11.48
6.49
1.10
-4.44
-9.86
-14.92
-19.58
-23.92
-28.23
-32.84
-38.19
-44.60
-52.19
-60.60
-68.90
-75.60
-78.94
-77.44
-70.43
-58.34
-42.63
-25.33
-8.44
6.50
18.65
27.78
34.04
37.83
39.57
39.75
38.82
37.23
35.37
33.64
32.36
31.76
31.92
32.71
33.76
34.65
34.98
34.57
33.43
31.73
29.64
27.33
24.82
22.01
18.70
14.75
10.06
4.77
-0.83
-6.33
-11.45
-16.09
-20.42
-24.72
-29.28
-34.32
-40.05
-46.53
-53.68
-60.99
-67.40
-71.37
-71.29
-66.03
-55.50
-40.73
-23.68
-6.61
8.53
20.56
29.11
34.50
37.39
38.49
38.41
37.63
36.48
35.28
34.27
33.67
33.59
33.99
34.68
35.42
35.97
36.18
35.97
35.34
34.27
32.77
30.82
28.40
25.47
21.94
17.72
12.75
7.10
0.99
-5.19
-11.01
-16.11
-20.35
-23.82
-26.85
-29.93
-33.59
-38.29
-44.32
-51.54
-59.34
-66.48
-71.34
-72.25
-68.07
-58.62
-44.87
-28.67
-12.25
2.47
14.27
22.83
28.43
31.64
32.99
32.86
31.55
29.40
26.92
24.66
23.15
22.69
23.21
24.33
25.49
26.23
26.30
25.76
24.88
23.88
22.81
21.40
19.25
15.96
11.42
5.87
-0.17
-6.11
-11.48
-16.02
-19.75
-22.93
-26.00
-29.57
-34.25
-40.45
-48.06
-56.22
-63.38
-67.62
-67.33
-61.69
-51.06
-36.79
-20.86
-5.26
8.51
19.58
27.75
33.24
36.41
37.70
37.48
36.11
34.03
31.72
29.73
28.48
28.20
28.81
29.94
31.13
31.94
32.15
31.72
30.75
29.37
27.61
25.42
22.68
19.34
15.39
10.96
6.20
1.25
-3.84
-9.05
-14.37
-19.69
-24.82
-29.60
-33.96
-38.11
-42.52
-47.82
-54.55
-62.87
-72.24
-81.35
-88.31
-91.09
-88.16
-79.05
-64.54
-46.50
-27.31
-9.23
6.17
18.24
27.09
33.28
37.50
40.32
42.16
43.26
43.84
44.05
44.10
44.14
44.27
44.47
44.69
44.86
45.00
45.15
45.36
45.58
45.59
44.99
43.38
40.47
36.32
31.31
26.00
20.94
16.40
12.29
8.22
3.71
-1.55
-7.54
-13.92
-20.15
-25.75
-30.49
-34.48
-38.18
-42.25
-47.40
-54.11
-62.45
-71.81
-80.82
-87.57
-90.02
-86.62
-76.86
-61.57
-42.71
-22.84
-4.37
11.08
22.87
31.23
36.82
40.39
42.50
43.50
43.65
43.24
42.63
42.17
42.12
42.55
43.33
44.21
44.94
45.42
45.66
45.77
45.76
45.52
44.72
43.01
40.16
36.21
31.48
26.45
21.53
16.96
12.71
8.53
4.09
-0.88
-6.48
-12.51
-18.59
-24.20
-28.95
-32.77
-35.98
-39.25
-43.41
-49.16
-56.77
-65.89
-75.43
-83.64
-88.46
-87.99
-81.18
-68.26
-50.76
-31.16
-12.06
4.54
17.67
27.31
34.01
38.40
40.94
41.85
41.34
39.75
37.54
35.27
33.41
32.25
31.83
32.02
32.54
33.02
33.18
32.89
32.20
31.25
30.15
28.78
26.84
23.94
19.80
14.43
8.22
1.73
-4.45
-9.96
-14.74
-18.99
-23.09
-27.46
-32.48
-38.48
-45.53
-53.38
-61.24
-67.75
-71.26
-70.23
-63.80
-52.18
-36.72
-19.50
-2.77
11.71
23.00
30.97
36.01
38.70
39.51
38.80
36.88
34.20
31.26
28.59
26.56
25.29
24.62
24.30
24.11
23.95
23.84
23.76
23.53
22.76
21.00
17.86
13.32
7.71
1.64
-4.21
-9.42
-13.92
-18.04
-22.37
-27.54
-33.92
-41.41
-49.27
-56.14
-60.32
-60.24
-55.02
-44.86
-30.98
-15.27
0.26
14.11
25.39
33.82
39.49
42.55
43.23
41.83
38.81
34.85
30.70
27.03
24.31
22.67
21.98
21.95
22.21
22.50
22.58
22.32
21.59
20.22
18.03
14.91
10.94
6.35
1.50
-3.24
-7.69
-11.87
-16.08
-20.75
-26.37
-33.27
-41.41
-50.13
-58.15
-63.76
-65.25
-61.55
-52.60
-39.45
-23.99
-8.34
5.69
17.01
25.25
30.61
33.50
34.34
33.48
31.22
27.91
24.00
19.99
16.39
13.63
11.99
11.50
11.95
12.95
14.00
14.64
14.50
13.41
11.33
8.33
4.53
0.14
-4.61
-9.44
-14.20
-18.87
-23.69
-29.08
-35.42
-42.69
-50.24
-56.76
-60.53
-59.99
-54.32
-43.82
-29.87
-14.56
0.01
12.24
21.37
27.45
30.92
32.32
32.03
30.26
27.24
23.35
19.16
15.35
12.52
10.99
10.74
11.47
12.66
13.74
14.19
13.62
11.86
8.91
4.99
0.41
-4.48
-9.38
-14.17
-18.89
-23.75
-29.14
-35.46
-42.98
-51.50
-60.17
-67.44
-71.39
-70.28
-63.31
-50.88
-34.68
-17.08
-0.39
13.72
24.48
31.94
36.56
38.94
39.57
38.84
37.10
34.74
32.18
29.80
27.90
26.55
25.66
25.04
24.50
23.98
23.54
23.20
22.79
21.92
19.98
16.49
11.27
4.66
-2.64
-9.77
-16.14
-21.51
-26.11
-30.54
-35.55
-41.77
-49.53
-58.47
-67.49
-74.81
-78.41
-76.62
-68.79
-55.58
-38.81
-20.89
-4.06
10.20
21.32
29.53
35.40
39.42
41.88
42.88
42.55
41.24
39.52
37.99
37.08
36.87
37.10
37.32
37.13
36.38
35.18
33.80
32.46
31.17
29.65
27.41
23.99
19.19
13.17
6.50
-0.08
-5.94
-10.76
-14.70
-18.33
-22.38
-27.50
-34.10
-42.16
-51.14
-60.02
-67.32
-71.39
-70.75
-64.64
-53.30
-38.09
-21.08
-4.44
10.16
21.92
30.85
37.41
42.12
45.25
46.92
47.26
46.55
45.31
44.07
43.21
42.85
42.86
43.03
43.23
43.42
43.67
43.95
44.14
43.94
42.99
40.99
37.82
33.62
28.78
23.78
19.01
14.60
10.37
5.95
1.05
-4.41
-10.17
-15.79
-20.87
-25.25
-29.11
-32.89
-37.17
-42.50
-49.18
-57.16
-65.80
-73.80
-79.38
-80.72
-76.54
-66.63
-52.06
-34.89
-17.53
-2.01
10.50
19.80
26.36
30.85
33.77
35.27
35.36
34.14
31.98
29.54
27.61
26.76
27.19
28.62
30.49
32.14
33.12
33.24
32.56
31.29
29.58
27.52
25.02
21.93
18.10
13.49
8.27
2.78
-2.54
-7.28
-11.27
-14.63
-17.78
-21.29
-25.72
-31.39
-38.29
-46.02
-53.77
-60.39
-64.46
-64.68
-60.16
-50.85
-37.68
-22.36
-6.96
6.73
17.59
25.36
30.33
33.05
33.95
33.29
31.31
28.38
25.15
22.41
20.82
20.62
21.57
23.02
24.20
24.60
24.09
22.97
21.66
20.45
19.27
17.72
15.21
11.36
6.12
-0.10
-6.60
-12.70
-17.94
-22.28
-26.06
-29.84
-34.23
-39.66
-46.28
-53.80
-61.50
-68.17
-72.31
-72.51
-67.86
-58.30
-44.75
-28.90
-12.73
2.04
14.27
23.58
30.20
34.62
37.38
38.87
39.34
39.03
38.19
37.12
36.14
35.44
35.05
34.89
34.79
34.64
34.47
34.39
34.47
34.62
34.49
33.62
31.58
28.19
23.63
18.39
13.05
8.09
3.68
-0.36
-4.43
-8.96
-14.19
-19.99
-25.92
-31.48
-36.22
-40.10
-43.49
-47.08
-51.68
-57.86
-65.66
-74.38
-82.58
-88.28
-89.52
-84.93
-74.24
-58.53
-39.90
-20.90
-3.70
10.39
21.10
28.80
34.12
37.62
39.67
40.56
40.67
40.48
40.42
40.80
41.62
42.71
43.79
44.60
45.06
45.18
45.10
45.00
44.98
45.01
44.84
44.14
42.55
39.92
36.39
32.31
28.12
24.12
20.44
17.01
13.69
10.36
6.99
3.58
0.16
-3.27
-6.77
-10.47
-14.48
-18.90
-23.73
-28.83
-33.93
-38.76
-43.09
-46.90
-50.43
-54.14
-58.64
-64.48
-71.88
-80.45
-88.97
-95.49
-97.82
-94.19
-83.95
-67.99
-48.43
-28.01
-9.23
6.27
18.00
26.29
31.90
35.58
37.87
39.10
39.52
39.40
39.02
38.70
38.68
39.10
39.97
41.22
42.69
44.17
45.44
46.32
46.67
46.44
45.61
44.17
42.07
39.28
35.81
31.75
27.31
22.79
18.46
14.49
10.90
7.54
4.20
0.64
-3.28
-7.63
-12.33
-17.19
-21.95
-26.36
-30.25
-33.67
-36.86
-40.27
-44.44
-49.83
-56.67
-64.78
-73.41
-81.12
-86.04
-86.34
-80.75
-69.24
-53.09
-34.53
-16.07
0.24
13.30
22.89
29.32
33.06
34.58
34.33
32.85
30.78
28.74
27.17
26.24
25.90
26.04
26.54
27.34
28.39
29.59
30.71
31.47
31.60
30.84
29.08
26.36
22.92
19.05
15.03
10.98
6.83
2.39
-2.46
-7.69
-13.09
-18.34
-23.19
-27.56
-31.56
-35.56
-40.11
-45.80
-52.99
-61.59
-70.74
-78.86
-83.95
-84.18
-78.50
-67.04
-51.15
-32.88
-14.53
2.01
15.54
25.61
32.36
36.31
38.14
38.54
38.06
37.12
35.97
34.74
33.55
32.50
31.74
31.42
31.62
32.30
33.31
34.39
35.21
35.47
34.90
33.34
30.79
27.37
23.31
18.86
14.16
9.23
3.97
-1.69
-7.74
-14.02
-20.25
-26.15
-31.55
-36.46
-41.09
-45.84
-51.27
-57.86
-65.76
-74.49
-82.75
-88.64
-90.12
-85.68
-74.97
-58.98
-39.81
-19.95
-1.66
13.60
25.28
33.59
39.15
42.67
44.74
45.81
46.15
46.00
45.53
44.95
44.38
43.93
43.63
43.50
43.58
43.95
44.61
45.39
45.90
45.56
43.85
40.57
35.92
30.56
25.21
20.36
16.09
12.07
7.81
2.93
-2.74
-9.05
-15.65
-22.11
-28.08
-33.39
-38.13
-42.73
-47.83
-54.08
-61.76
-70.44
-78.93
-85.38
-87.72
-84.32
-74.54
-59.02
-39.60
-18.79
0.91
17.61
30.41
39.33
44.88
47.78
48.64
48.07
46.65
45.06
43.90
43.55
43.97
44.81
45.63
46.10
46.16
45.95
45.65
45.33
44.91
44.13
42.71
40.44
37.26
33.32
28.88
24.24
19.60
14.96
10.10
4.77
-1.17
-7.59
-14.12
-20.23
-25.57
-30.09
-34.12
-38.28
-43.24
-49.54
-57.27
-65.95
-74.39
-80.86
-83.40
-80.44
-71.37
-56.86
-38.82
-19.79
-2.20
12.32
23.18
30.66
35.49
38.36
39.70
39.71
38.55
36.50
34.06
31.79
30.20
29.55
29.78
30.61
31.58
32.32
32.65
32.62
32.35
31.91
31.14
29.63
26.89
22.60
16.79
9.95
2.84
-3.79
-9.44
-14.04
-17.90
-21.55
-25.63
-30.66
-37.02
-44.80
-53.64
-62.54
-69.91
-73.85
-72.73
-65.81
-53.59
-37.69
-20.35
-3.76
10.48
21.53
29.25
33.94
36.00
35.91
34.18
31.31
27.94
24.67
22.00
20.25
19.45
19.32
19.48
19.57
19.43
19.17
18.98
18.89
18.66
17.75
15.56
11.71
6.21
-0.44
-7.49
-14.18
-20.00
-24.88
-29.20
-33.71
-39.18
-46.15
-54.52
-63.39
-71.17
-75.96
-76.07
-70.61
-59.79
-44.88
-27.86
-10.88
4.28
16.53
25.58
31.71
35.44
37.27
37.54
36.48
34.40
31.79
29.27
27.43
26.54
26.47
26.75
26.86
26.49
25.65
24.62
23.68
22.85
21.81
20.02
16.91
12.21
6.03
-1.07
-8.35
-15.08
-20.84
-25.67
-30.07
-34.85
-40.84
-48.55
-57.83
-67.71
-76.52
-82.23
-83.12
-78.26
-67.90
-53.45
-36.97
-20.61
-5.99
6.07
15.50
22.61
27.80
31.34
33.31
33.82
33.09
31.55
29.73
28.18
27.25
27.01
27.28
27.78
28.29
28.76
29.26
29.95
30.81
31.60
31.82
30.92
28.51
24.57
19.49
13.91
8.50
3.75
-0.23
-3.70
-7.18
-11.33
-16.71
-23.57
-31.60
-39.88
-46.98
-51.19
-51.06
-45.83
-35.78
-22.23
-7.15
7.38
19.82
29.46
36.53
41.72
45.76
48.98
51.28
52.29
51.80
49.98
47.39
44.75
42.67
41.37
40.70
40.30
39.75
38.81
37.44
35.74
33.86
31.82
29.49
26.64
23.00
18.43
13.04
7.18
1.32
-4.14
-8.96
-13.16
-16.98
-20.83
-25.13
-30.26
-36.50
-43.89
-52.14
-60.51
-67.83
-72.64
-73.55
-69.58
-60.56
-47.32
-31.50
-15.13
-0.07
12.46
22.07
29.01
33.79
36.87
38.49
38.72
37.74
35.92
33.86
32.20
31.33
31.24
31.60
31.96
31.92
31.38
30.47
29.41
28.35
27.13
25.35
22.47
18.14
12.41
5.82
-0.81
-6.65
-11.27
-14.78
-17.78
-21.12
-25.59
-31.65
-39.24
-47.77
-56.08
-62.62
-65.77
-64.26
-57.67
-46.60
-32.55
-17.51
-3.32
8.73
18.09
24.75
29.10
31.59
32.64
32.58
31.66
30.06
27.92
25.45
22.93
20.68
18.99
17.96
17.49
17.28
17.01
16.35
15.09
13.12
10.35
6.82
2.64
-2.01
-6.89
-11.84
-16.83
-21.95
-27.38
-33.29
-39.63
-45.95
-51.37
-54.63
-54.44
-49.96
-41.17
-29.02
-15.24
-1.74
9.91
18.84
24.98
28.66
30.30
30.18
28.46
25.28
21.07
16.48
12.33
9.38
8.04
8.24
9.41
10.73
11.35
10.75
8.86
6.00
2.69
-0.66
-3.92
-7.27
-11.05
-15.60
-21.11
-27.62
-35.03
-43.08
-51.23
-58.47
-63.43
-64.60
-60.87
-51.98
-38.80
-23.12
-7.12
7.24
18.71
26.86
31.96
34.57
35.30
34.60
32.81
30.21
27.11
23.91
21.02
18.80
17.47
17.00
17.11
17.31
17.07
15.95
13.73
10.45
6.39
1.88
-2.82
-7.55
-12.32
-17.20
-22.35
-27.93
-34.20
-41.33
-49.28
-57.51
-64.86
-69.67
-70.26
-65.46
-55.21
-40.65
-23.88
-7.26
7.28
18.71
26.99
32.76
36.80
39.68
41.53
42.26
41.74
40.16
37.99
35.90
34.39
33.60
33.26
32.92
32.27
31.24
30.02
28.87
27.86
26.72
24.94
21.97
17.47
11.48
4.42
-3.00
-10.03
-16.13
-21.12
-25.23
-29.04
-33.25
-38.57
-45.48
-54.05
-63.82
-73.64
-81.75
-86.08
-84.90
-77.36
-63.99
-46.54
-27.50
-9.30
6.36
18.77
28.10
34.92
39.86
43.31
45.50
46.62
46.91
46.70
46.31
45.95
45.69
45.46
45.18
44.82
44.50
44.42
44.71
45.30
45.87
45.84
44.59
41.70
37.12
31.28
24.92
18.85
13.70
9.63
6.29
2.99
-0.99
-6.12
-12.36
-19.23
-26.00
-32.05
-37.13
-41.48
-45.74
-50.73
-57.12
-65.06
-73.98
-82.50
-88.61
-90.28
-86.02
-75.49
-59.70
-40.74
-21.14
-3.11
11.94
23.53
31.89
37.53
40.99
42.65
42.88
42.06
40.64
39.10
37.83
37.10
36.99
37.47
38.34
39.37
40.26
40.73
40.51
39.45
37.52
34.88
31.78
28.46
25.02
21.37
17.26
12.42
6.75
0.42
-6.16
-12.44
-18.05
-22.86
-27.08
-31.15
-35.61
-40.92
-47.33
-54.77
-62.64
-69.79
-74.59
-75.38
-70.97
-61.15
-46.79
-29.71
-12.09
4.07
17.40
27.26
33.67
36.99
37.75
36.51
33.85
30.39
26.80
23.70
21.55
20.54
20.50
21.01
21.59
21.86
21.68
21.14
20.42
19.60
18.58
17.06
14.61
10.92
5.94
-0.05
-6.50
-12.75
-18.34
-23.18
-27.69
-32.61
-38.68
-46.27
-55.02
-63.80
-70.83
-74.25
-72.61
-65.40
-53.23
-37.68
-20.82
-4.59
9.58
21.03
29.65
35.65
39.29
40.77
40.32
38.27
35.15
31.62
28.33
25.77
24.17
23.52
23.56
23.98
24.46
24.77
24.74
24.21
22.95
20.66
17.10
12.12
5.96
-0.91
-7.82
-14.20
-19.76
-24.60
-29.18
-34.21
-40.36
-48.11
-57.42
-67.52
-76.80
-83.14
-84.47
-79.52
-68.30
-52.25
-33.74
-15.30
1.15
14.58
24.93
32.63
38.26
42.24
44.79
45.97
45.88
44.70
42.77
40.55
38.53
37.07
36.26
35.92
35.70
35.26
34.43
33.28
31.93
30.42
28.60
26.12
22.61
17.89
12.09
5.54
-1.30
-8.09
-14.62
-20.83
-26.68
-32.18
-37.50
-42.99
-49.18
-56.52
-64.89
-73.34
-80.01
-82.64
-79.44
-69.81
-54.69
-36.28
-17.25
0.11
14.47
25.51
33.62
39.44
43.45
45.87
46.76
46.22
44.60
42.38
40.19
38.52
37.57
37.26
37.26
37.22
36.95
36.49
36.01
35.60
35.16
34.33
32.68
29.90
25.87
20.73
14.78
8.36
1.81
-4.54
-10.45
-15.75
-20.46
-24.78
-29.12
-33.99
-39.89
-47.14
-55.70
-65.05
-73.96
-80.70
-83.35
-80.38
-71.25
-56.68
-38.55
-19.35
-1.42
13.58
25.01
33.05
38.38
41.73
43.61
44.23
43.71
42.19
40.04
37.78
35.96
34.99
34.98
35.74
36.89
38.02
38.77
38.93
38.36
36.99
34.81
31.83
28.09
23.65
18.57
12.96
7.07
1.21
-4.25
-9.07
-13.25
-17.01
-20.76
-24.89
-29.76
-35.62
-42.59
-50.60
-59.18
-67.34
-73.60
-76.29
-74.02
-66.29
-53.68
-37.79
-20.74
-4.56
9.28
20.13
28.06
33.51
36.93
38.60
38.68
37.29
34.75
31.66
28.79
26.85
26.19
26.76
28.12
29.68
30.93
31.56
31.48
30.73
29.37
27.40
24.76
21.33
17.01
11.77
5.85
-0.35
-6.29
-11.46
-15.63
-19.00
-22.11
-25.70
-30.40
-36.55
-44.13
-52.62
-61.07
-68.16
-72.33
-72.19
-66.93
-56.67
-42.54
-26.38
-10.26
4.10
15.69
24.28
30.18
33.91
35.83
36.15
34.94
32.40
29.01
25.55
22.85
21.52
21.65
22.81
24.27
25.36
25.71
25.37
24.58
23.52
22.11
20.01
16.81
12.26
6.50
0.03
-6.37
-11.98
-16.44
-19.89
-22.97
-26.57
-31.50
-38.22
-46.66
-56.18
-65.67
-73.65
-78.40
-78.37
-72.61
-61.22
-45.46
-27.50
-9.80
5.61
17.65
26.21
31.88
35.46
37.67
38.91
39.41
39.27
38.59
37.54
36.30
35.14
34.25
33.77
33.69
33.88
34.16
34.32
34.16
33.49
32.12
29.89
26.75
22.82
18.28
13.36
8.19
2.82
-2.66
-8.13
-13.40
-18.29
-22.78
-27.04
-31.38
-36.23
-42.01
-49.00
-57.27
-66.37
-75.23
-82.16
-85.20
-82.75
-74.20
-60.25
-42.78
-24.23
-6.88
7.73
19.05
27.29
33.11
37.23
40.19
42.28
43.62
44.26
44.25
43.74
42.93
42.05
41.31
40.83
40.69
40.88
41.31
41.80
42.04
41.66
40.31
37.79
34.14
29.64
24.76
20.00
15.70
11.87
8.21
4.22
-0.56
-6.26
-12.63
-19.12
-25.13
-30.36
-34.90
-39.23
-43.97
-49.63
-56.41
-64.05
-71.71
-78.08
-81.49
-80.35
-73.69
-61.61
-45.39
-27.16
-9.23
6.54
19.14
28.41
34.79
38.87
41.20
42.22
42.29
41.78
41.00
40.17
39.48
38.98
38.72
38.68
38.87
39.24
39.67
40.02
40.09
39.65
38.45
36.33
33.30
29.59
25.54
21.52
17.70
13.98
10.05
5.57
0.34
-5.56
-11.82
-17.96
-23.50
-28.12
-31.78
-34.82
-37.95
-42.03
-47.83
-55.60
-64.82
-74.07
-81.32
-84.47
-81.99
-73.42
-59.63
-42.54
-24.59
-8.00
5.73
16.10
23.36
28.11
30.90
32.00
31.51
29.60
26.73
23.67
21.30
20.30
20.85
22.57
24.69
26.42
27.26
27.14
26.33
25.18
23.87
22.24
19.90
16.50
11.91
6.38
0.40
-5.46
-10.77
-15.39
-19.39
-23.06
-26.83
-31.25
-36.81
-43.86
-52.18
-60.81
-68.14
-72.22
-71.39
-64.86
-53.04
-37.43
-20.17
-3.45
11.09
22.56
30.88
36.40
39.67
41.10
40.99
39.53
37.04
34.02
31.14
29.07
28.18
28.46
29.49
30.65
31.36
31.31
30.49
29.06
27.22
25.07
22.53
19.44
15.62
10.96
5.52
-0.52
-6.81
-12.98
-18.74
-23.97
-28.76
-33.45
-38.49
-44.42
-51.60
-60.11
-69.46
-78.51
-85.58
-88.74
-86.41
-77.91
-63.81
-45.85
-26.44
-7.96
7.86
20.27
29.36
35.78
40.22
43.22
45.05
45.85
45.74
45.00
43.95
42.94
42.22
41.86
41.83
42.01
42.23
42.31
42.05
41.33
40.09
38.37
36.19
33.52
30.24
26.12
20.99
14.85
7.94
0.66
-6.53
-13.25
-19.27
-24.55
-29.24
-33.68
-38.39
-44.00
-51.06
-59.69
-69.30
-78.51
-85.32
-87.64
-83.92
-73.78
-58.15
-39.10
-19.18
-0.77
14.57
26.24
34.49
40.01
43.52
45.62
46.69
47.03
46.89
46.44
45.84
45.10
44.23
43.30
42.45
41.88
41.77
42.14
42.83
43.50
43.70
42.98
41.00
37.62
33.04
27.72
22.29
17.30
12.94
8.99
4.98
0.47
-4.73
-10.40
-16.11
-21.45
-26.29
-30.81
-35.46
-40.77
-47.21
-55.03
-64.00
-73.34
-81.59
-86.83
-87.21
-81.53
-69.75
-53.18
-34.06
-14.90
2.24
16.18
26.70
34.16
39.17
42.23
43.69
43.79
42.84
41.24
39.39
37.64
36.20
35.20
34.73
34.91
35.78
37.21
38.80
39.93
40.02
38.72
36.04
32.32
28.07
23.72
19.53
15.55
11.63
7.57
3.12
-1.88
-7.49
-13.55
-19.76
-25.70
-31.09
-35.88
-40.27
-44.77
-49.95
-56.29
-63.84
-71.97
-79.33
-84.02
-84.12
-78.36
-66.64
-50.19
-31.19
-12.15
4.86
18.57
28.66
35.42
39.34
40.93
40.53
38.49
35.31
31.65
28.29
25.95
25.04
25.52
26.92
28.54
29.76
30.19
29.79
28.76
27.35
25.67
23.64
21.03
17.58
13.08
7.54
1.13
-5.76
-12.63
-19.03
-24.66
-29.48
-33.76
-37.94
-42.57
-48.18
-55.14
-63.39
-72.29
-80.48
-86.05
-87.02
-81.99
-70.71
-54.28
-34.87
-15.05
2.97
17.83
29.09
37.01
42.14
45.00
46.00
45.49
43.87
41.60
39.21
37.14
35.66
34.86
34.71
35.08
35.81
36.71
37.52
37.94
37.66
36.41
34.16
31.00
27.13
22.76
17.94
12.64
6.82
0.46
-6.25
-13.03
-19.55
-25.55
-30.96
-35.93
-40.83
-46.13
-52.36
-59.88
-68.71
-78.23
-87.11
-93.41
-95.03
-90.37
-78.96
-61.72
-40.81
-19.02
1.03
17.53
29.82
38.16
43.35
46.29
47.67
47.99
47.57
46.73
45.75
44.86
44.19
43.70
43.30
42.91
42.49
42.03
41.50
40.79
39.81
38.42
36.58
34.21
31.26
27.61
23.16
17.89
11.91
5.49
-1.03
-7.31
-13.04
-18.07
-22.40
-26.24
-30.05
-34.47
-40.19
-47.65
-56.75
-66.60
-75.56
-81.54
-82.55
-77.32
-65.80
-49.22
-29.83
-10.18
7.52
21.89
32.52
39.74
44.27
46.71
47.50
46.84
44.94
42.18
39.17
36.62
35.02
34.52
34.84
35.49
36.03
36.16
35.81
34.99
33.75
32.09
29.94
27.26
23.95
19.92
15.10
9.54
3.47
-2.71
-8.65
-14.15
-19.27
-24.30
-29.60
-35.45
-42.03
-49.41
-57.39
-65.41
-72.35
-76.64
-76.66
-71.33
-60.58
-45.56
-28.23
-10.83
4.80
17.60
27.20
33.77
37.59
39.00
38.32
35.99
32.63
28.99
25.75
23.36
21.95
21.36
21.29
21.46
21.72
22.03
22.25
22.09
21.17
19.07
15.59
10.84
5.24
-0.62
-6.20
-11.18
-15.54
-19.54
-23.63
-28.38
-34.29
-41.60
-50.07
-58.76
-66.10
-70.18
-69.30
-62.63
-50.53
-34.53
-16.91
0.01
14.49
25.67
33.48
38.36
40.83
41.35
40.25
37.89
34.73
31.35
28.23
25.67
23.71
22.23
21.08
20.23
19.77
19.73
19.94
19.96
19.18
17.01
13.18
7.81
1.40
-5.36
-11.85
-17.70
-22.87
-27.71
-32.85
-39.01
-46.70
-55.89
-65.82
-74.91
-81.10
-82.40
-77.61
-66.67
-50.86
-32.30
-13.42
3.77
18.04
28.97
36.72
41.68
44.28
44.92
44.02
42.17
40.02
38.15
36.93
36.42
36.35
36.31
35.89
34.84
33.24
31.37
29.60
28.15
26.91
25.40
22.97
19.04
13.50
6.75
-0.46
-7.36
-13.46
-18.74
-23.63
-28.77
-34.80
-42.15
-50.85
-60.38
-69.58
-76.69
-79.81
-77.39
-68.84
-54.84
-37.23
-18.43
-0.72
14.31
26.06
34.73
40.91
45.20
47.95
49.20
48.95
47.38
45.00
42.55
40.79
40.14
40.55
41.56
42.47
42.76
42.19
40.89
39.15
37.26
35.25
32.96
30.00
26.06
20.97
14.86
8.10
1.20
-5.38
-11.36
-16.72
-21.68
-26.61
-31.95
-38.13
-45.42
-53.76
-62.57
-70.62
-76.18
-77.50
-73.38
-63.63
-49.26
-32.22
-14.74
1.26
14.61
24.89
32.22
36.92
39.31
39.64
38.23
35.64
32.64
30.03
28.45
28.12
28.78
29.89
30.85
31.26
31.03
30.32
29.33
28.15
26.65
24.53
21.45
17.24
11.96
5.99
-0.12
-5.83
-10.84
-15.22
-19.42
-24.04
-29.65
-36.58
-44.69
-53.39
-61.64
-68.01
-71.01
-69.40
-62.61
-51.11
-36.33
-20.24
-4.77
8.70
19.59
27.82
33.54
36.81
37.65
36.20
32.98
28.82
24.68
21.28
18.99
17.69
17.05
16.70
16.36
15.98
15.60
15.25
14.79
13.79
11.60
7.62
1.60
-6.10
-14.53
-22.51
-29.09
-33.91
-37.36
-40.41
-44.29
-50.25
-59.13
-70.98
-84.62
-97.51
-106.06
-106.62
-96.80
-76.54
-48.32
-16.48
14.30
40.28
59.50
71.81
78.21
80.10
78.74
75.12
70.04
64.30
58.69
53.92
50.38
48.01
46.32
44.65
42.45
39.53
36.20
33.06
30.63
29.08
28.05
26.75
24.24
19.78
13.12
4.62
-4.82
-14.01
-21.91
-27.94
-32.22
-35.52
-38.96
-43.64
-50.30
-59.09
-69.46
-80.07
-88.96
-93.87
-92.83
-84.84
-70.35
-51.22
-30.23
-10.11
7.11
20.54
30.29
37.02
41.52
44.39
46.03
46.68
46.52
45.77
44.71
43.64
42.89
42.61
42.76
43.11
43.34
43.19
42.62
41.68
40.46
38.95
36.98
34.34
30.86
26.42
21.03
14.79
7.90
0.66
-6.50
-13.16
-19.03
-24.04
-28.45
-32.79
-37.73
-44.01
-52.15
-62.11
-73.06
-83.25
-90.31
-91.87
-86.43
-73.92
-55.84
-34.84
-13.79
4.86
19.70
30.40
37.44
41.59
43.64
44.15
43.44
41.81
39.65
37.49
35.88
35.13
35.22
35.79
36.33
36.49
36.23
35.73
35.23
34.80
34.23
33.16
31.17
27.89
23.13
16.94
9.63
1.77
-5.89
-12.72
-18.37
-22.97
-27.04
-31.28
-36.35
-42.80
-50.88
-60.44
-70.76
-80.42
-87.40
-89.54
-85.26
-74.22
-57.55
-37.54
-16.95
1.77
17.11
28.53
36.28
40.92
42.99
42.92
41.09
38.01
34.40
31.08
28.78
27.79
27.88
28.44
28.79
28.54
27.78
26.89
26.24
25.84
25.23
23.65
20.43
15.25
8.39
0.60
-7.19
-14.22
-20.14
-25.11
-29.78
-34.97
-41.48
-49.74
-59.57
-70.04
-79.51
-85.86
-87.04
-81.71
-69.72
-52.33
-31.82
-10.87
8.24
24.10
36.27
44.96
50.55
53.39
53.75
51.95
48.62
44.61
40.86
38.10
36.66
36.38
36.73
37.05
36.79
35.74
34.05
32.09
30.23
28.56
26.81
24.38
20.63
15.17
8.09
-0.09
-8.58
-16.61
-23.75
-29.99
-35.70
-41.55
-48.22
-56.26
-65.81
-76.40
-86.77
-95.05
-99.06
-96.99
-87.97
-72.48
-52.29
-29.96
-8.15
11.09
26.69
38.45
46.80
52.24
55.24
56.08
55.13
52.88
50.07
47.44
45.55
44.56
44.27
44.26
44.13
43.62
42.71
41.51
40.14
38.65
36.94
34.76
31.75
27.63
22.22
15.60
8.10
0.21
-7.53
-14.74
-21.22
-27.09
-32.73
-38.67
-45.51
-53.70
-63.24
-73.45
-82.92
-89.64
-91.53
-87.05
-75.80
-58.76
-38.03
-16.26
4.09
21.31
34.69
44.34
50.77
54.58
56.18
55.86
53.93
50.88
47.36
44.10
41.68
40.41
40.23
40.76
41.49
41.89
41.61
40.52
38.75
36.51
33.99
31.21
27.97
23.96
18.91
12.75
5.70
-1.78
-9.15
-15.98
-22.07
-27.57
-32.82
-38.32
-44.55
-51.90
-60.51
-70.06
-79.55
-87.36
-91.51
-90.18
-82.38
-68.39
-49.80
-29.00
-8.58
9.42
23.79
34.17
40.75
43.95
44.27
42.28
38.68
34.31
30.04
26.60
24.36
23.31
23.14
23.45
23.90
24.31
24.63
24.83
24.73
24.00
22.25
19.16
14.62
8.82
2.21
-4.59
-11.05
-16.85
-22.06
-27.13
-32.82
-39.88
-48.70
-58.98
-69.54
-78.45
-83.43
-82.61
-75.09
-61.37
-43.18
-22.99
-3.28
14.04
27.92
38.04
44.52
47.67
47.85
45.52
41.37
36.28
31.20
26.93
23.91
22.15
21.34
21.05
20.96
20.97
21.10
21.34
21.47
20.94
19.09
15.37
9.68
2.47
-5.38
-12.93
-19.48
-24.89
-29.56
-34.31
-40.10
-47.70
-57.39
-68.69
-80.18
-89.68
-94.66
-93.00
-83.74
-67.53
-46.52
-23.70
-2.00
16.46
30.75
40.90
47.53
51.34
52.87
52.53
50.73
48.03
45.09
42.53
40.68
39.55
38.79
37.98
36.83
35.39
33.96
32.90
32.30
31.82
30.74
28.24
23.81
17.49
9.91
2.04
-5.23
-11.40
-16.57
-21.33
-26.62
-33.42
-42.40
-53.59
-66.11
-78.16
-87.27
-90.97
-87.57
-76.80
-59.94
-39.44
-18.15
1.53
18.10
31.03
40.46
46.74
50.24
51.27
50.26
47.81
44.70
41.73
39.53
38.33
38.01
38.18
38.36
38.18
37.47
36.29
34.85
33.30
31.70
29.82
27.24
23.47
18.21
11.53
3.91
-3.88
-11.15
-17.45
-22.81
-27.69
-32.80
-38.89
-46.48
-55.62
-65.73
-75.46
-82.84
-85.79
-82.68
-72.94
-57.42
-38.08
-17.52
1.88
18.45
31.48
40.99
47.39
51.09
52.38
51.50
48.81
44.98
40.89
37.44
35.34
34.80
35.56
37.02
38.52
39.50
39.71
39.14
37.89
36.08
33.70
30.62
26.66
21.67
15.64
8.81
1.62
-5.36
-11.67
-17.07
-21.67
-25.86
-30.23
-35.35
-41.68
-49.47
-58.56
-68.22
-77.12
-83.42
-85.24
-81.22
-71.06
-55.68
-36.98
-17.31
1.21
17.09
29.56
38.47
43.97
46.37
46.01
43.39
39.18
34.31
29.76
26.41
24.78
24.84
26.06
27.66
28.95
29.53
29.39
28.66
27.44
25.56
22.69
18.55
13.11
6.73
0.05
-6.27
-11.77
-16.38
-20.42
-24.43
-29.09
-34.97
-42.41
-51.26
-60.80
-69.63
-75.98
-78.07
-74.64
-65.40
-51.16
-33.69
-15.21
2.22
17.10
28.82
37.45
43.40
47.15
48.97
48.98
47.32
44.33
40.63
37.00
34.19
32.66
32.47
33.27
34.49
35.52
35.91
35.45
34.14
32.08
29.36
26.01
22.00
17.27
11.84
5.82
-0.62
-7.20
-13.65
-19.69
-25.13
-29.97
-34.44
-39.04
-44.43
-51.22
-59.68
-69.46
-79.42
-87.76
-92.34
-91.30
-83.63
-69.65
-50.92
-29.93
-9.33
8.75
23.11
33.55
40.58
44.99
47.54
48.78
49.01
48.45
47.28
45.77
44.21
42.87
41.91
41.36
41.12
41.10
41.25
41.49
41.74
41.72
41.04
39.27
36.16
31.73
26.38
20.70
15.25
10.33
5.86
1.47
-3.32
-8.86
-15.19
-22.02
-28.81
-35.05
-40.42
-44.98
-49.20
-53.83
-59.58
-66.83
-75.25
-83.68
-90.26
-92.89
-89.81
-80.29
-64.86
-45.28
-24.04
-3.66
13.92
27.67
37.45
43.73
47.19
48.47
48.15
46.75
44.85
43.04
41.80
41.34
41.55
42.04
42.40
42.43
42.22
42.06
42.26
42.82
43.46
43.67
42.86
40.66
37.00
32.16
26.62
20.91
15.39
10.21
5.28
0.35
-4.81
-10.32
-16.11
-21.95
-27.51
-32.51
-36.85
-40.65
-44.30
-48.39
-53.56
-60.28
-68.49
-77.41
-85.46
-90.54
-90.61
-84.36
-71.74
-54.13
-33.93
-13.84
3.90
18.05
28.37
35.28
39.41
41.30
41.30
39.78
37.25
34.34
31.64
29.59
28.30
27.70
27.66
28.10
29.01
30.37
32.00
33.52
34.38
34.03
32.11
28.58
23.83
18.47
13.19
8.41
4.17
0.18
-4.05
-8.83
-14.19
-19.84
-25.39
-30.48
-34.98
-39.02
-42.92
-47.18
-52.34
-58.85
-66.73
-75.28
-83.01
-87.84
-87.67
-81.20
-68.40
-50.68
-30.44
-10.26
7.76
22.41
33.37
40.84
45.27
47.05
46.54
44.23
40.75
36.93
33.58
31.30
30.29
30.35
31.07
32.00
32.89
33.65
34.27
34.70
34.73
34.04
32.40
29.77
26.36
22.49
18.50
14.53
10.52
6.26
1.48
-4.01
-10.23
-17.00
-23.96
-30.62
-36.57
-41.66
-46.10
-50.45
-55.51
-62.01
-70.30
-80.02
-89.98
-98.23
-102.44
-100.55
-91.48
-75.61
-54.81
-31.94
-9.91
9.02
23.76
34.34
41.41
45.79
48.18
49.04
48.75
47.66
46.16
44.57
43.09
41.82
40.77
40.00
39.57
39.61
40.23
41.41
42.91
44.28
44.88
44.12
41.65
37.51
32.13
26.18
20.27
14.71
9.45
4.22
-1.32
-7.32
-13.70
-20.16
-26.36
-32.09
-37.30
-42.21
-47.27
-53.08
-60.22
-68.93
-78.80
-88.49
-95.93
-98.71
-94.91
-83.83
-66.33
-44.68
-21.80
-0.43
17.61
31.62
41.76
48.62
52.77
54.66
54.68
53.25
50.94
48.31
45.83
43.76
42.22
41.22
40.77
40.85
41.40
42.22
43.04
43.50
43.30
42.21
40.10
36.96
32.87
28.01
22.60
16.81
10.77
4.55
-1.80
-8.18
-14.41
-20.34
-25.87
-31.12
-36.43
-42.28
-49.17
-57.40
-66.72
-76.21
-84.21
-88.63
-87.54
-79.83
-65.77
-46.93
-25.84
-5.10
13.24
28.04
39.02
46.37
50.44
51.53
50.03
46.51
41.75
36.70
32.22
28.91
26.98
26.30
26.47
27.00
27.46
27.61
27.38
26.83
25.97
24.67
22.65
19.58
15.22
9.60
3.10
-3.72
-10.25
-16.12
-21.30
-26.11
-31.12
-36.97
-44.08
-52.50
-61.68
-70.48
-77.26
-80.27
-78.05
-69.98
-56.50
-39.07
-19.80
-0.90
15.92
29.59
39.72
46.31
49.55
49.74
47.35
43.04
37.72
32.36
27.78
24.47
22.50
21.61
21.36
21.36
21.36
21.24
20.93
20.26
18.90
16.40
12.40
6.83
0.04
-7.21
-14.08
-20.03
-25.05
-29.69
-34.86
-41.43
-49.82
-59.73
-70.00
-78.84
-84.13
-83.99
-77.40
-64.49
-46.65
-26.16
-5.54
13.08
28.32
39.63
47.08
51.08
52.18
51.02
48.30
44.77
41.10
37.81
35.13
33.05
31.41
30.07
28.97
28.16
27.70
27.50
27.28
26.55
24.73
21.38
16.36
9.91
2.60
-4.87
-11.86
-18.06
-23.57
-28.87
-34.70
-41.80
-50.58
-60.76
-71.17
-79.85
-84.47
-83.07
-74.75
-60.08
-40.91
-19.85
0.52
18.30
32.54
43.07
50.16
54.21
55.61
54.75
52.18
48.64
44.92
41.71
39.39
37.96
37.09
36.38
35.55
34.53
33.45
32.47
31.61
30.68
29.26
26.88
23.11
17.78
11.09
3.55
-4.14
-11.31
-17.65
-23.30
-28.86
-35.12
-42.71
-51.78
-61.71
-71.20
-78.39
-81.34
-78.58
-69.54
-54.90
-36.41
-16.43
2.73
19.42
32.88
43.03
50.19
54.65
56.57
56.13
53.72
50.06
46.13
42.85
40.78
39.99
40.06
40.30
40.14
39.27
37.80
36.07
34.43
32.96
31.39
29.14
25.60
20.39
13.61
5.83
-2.11
-9.42
-15.64
-20.81
-25.47
-30.39
-36.36
-43.85
-52.78
-62.43
-71.42
-77.95
-80.21
-76.84
-67.42
-52.72
-34.52
-15.19
2.99
18.33
30.04
38.13
43.03
45.27
45.32
43.60
40.58
36.89
33.22
30.19
28.11
26.96
26.41
26.09
25.77
25.43
25.16
24.97
24.64
23.71
21.66
18.07
12.89
6.52
-0.35
-6.96
-12.76
-17.64
-22.00
-26.56
-32.14
-39.28
-47.97
-57.44
-66.26
-72.58
-74.55
-70.86
-61.18
-46.36
-28.31
-9.51
7.64
21.41
31.08
36.82
39.35
39.49
37.87
34.96
31.16
26.95
22.91
19.57
17.21
15.86
15.29
15.24
15.48
15.83
16.03
15.79
14.73
12.55
9.13
4.59
-0.71
-6.33
-11.89
-17.20
-22.34
-27.61
-33.53
-40.51
-48.65
-57.48
-65.77
-71.74
-73.46
-69.55
-59.63
-44.61
-26.47
-7.65
9.65
23.97
34.78
42.25
46.81
48.88
48.76
46.72
43.22
38.97
34.81
31.43
29.14
27.83
27.13
26.57
25.94
25.23
24.58
24.04
23.40
22.18
19.80
15.81
10.10
3.02
-4.69
-12.16
-18.68
-23.97
-28.31
-32.42
-37.26
-43.64
-51.90
-61.66
-71.72
-80.20
-84.96
-84.17
-76.90
-63.53
-45.65
-25.70
-6.16
11.04
24.90
35.27
42.52
47.14
49.51
49.87
48.54
45.99
42.88
39.92
37.68
36.36
35.83
35.69
35.47
34.89
33.92
32.75
31.62
30.60
29.48
27.78
24.92
20.50
14.49
7.30
-0.33
-7.61
-13.96
-19.20
-23.57
-27.61
-31.99
-37.37
-44.20
-52.54
-61.89
-70.99
-77.95
-80.62
-77.26
-67.23
-51.40
-31.89
-11.52
7.15
22.49
34.02
42.10
47.45
50.68
52.15
52.05
50.63
48.24
45.40
42.59
40.16
38.25
36.85
35.82
35.00
34.27
33.61
33.03
32.52
31.94
31.04
29.41
26.62
22.39
16.69
9.79
2.19
-5.48
-12.59
-18.71
-23.66
-27.64
-31.14
-34.87
-39.57
-45.80
-53.71
-62.90
-72.25
-80.10
-84.44
-83.45
-76.14
-62.81
-45.06
-25.36
-6.29
10.19
23.13
32.44
38.48
41.64
42.17
40.28
36.43
31.44
26.38
22.30
19.89
19.24
19.92
21.21
22.43
23.16
23.36
23.17
22.72
21.91
20.38
17.63
13.38
7.74
1.27
-5.24
-11.08
-15.93
-19.98
-23.80
-28.11
-33.52
-40.36
-48.51
-57.39
-65.83
-72.21
-74.76
-72.08
-63.63
-50.07
-33.09
-14.93
2.26
16.97
28.50
36.77
42.03
44.55
44.57
42.40
38.54
33.79
29.08
25.23
22.80
21.87
22.11
22.93
23.72
24.05
23.79
23.07
22.03
20.68
18.80
15.95
11.77
6.11
-0.70
-8.03
-15.08
-21.24
-26.30
-30.55
-34.64
-39.40
-45.58
-53.53
-63.00
-72.92
-81.51
-86.60
-86.21
-79.26
-66.01
-48.04
-27.86
-8.11
9.14
22.83
32.84
39.71
44.12
46.66
47.63
47.25
45.72
43.38
40.70
38.21
36.32
35.20
34.78
34.80
34.90
34.80
34.36
33.54
32.39
30.92
28.99
26.37
22.79
18.02
12.06
5.21
-2.07
-9.16
-15.57
-21.10
-25.89
-30.41
-35.31
-41.20
-48.46
-57.12
-66.67
-76.05
-83.71
-87.88
-86.96
-80.05
-67.29
-49.94
-30.09
-10.08
8.10
23.14
34.57
42.55
47.58
50.26
51.12
50.63
49.21
47.24
45.07
43.05
41.46
40.49
40.24
40.64
41.46
42.39
43.05
43.13
42.39
40.67
37.97
34.37
30.07
25.31
20.34
15.27
10.13
4.82
-0.78
-6.69
-12.76
-18.73
-24.32
-29.33
-33.81
-38.08
-42.72
-48.40
-55.63
-64.40
-73.87
-82.31
-87.43
-87.00
-79.71
-65.69
-46.65
-25.35
-4.73
12.94
26.57
36.17
42.43
46.12
47.83
47.88
46.47
43.97
40.93
37.96
35.60
34.12
33.56
33.76
34.46
35.41
36.35
36.98
37.02
36.17
34.24
31.20
27.19
22.46
17.29
11.90
6.41
0.92
-4.45
-9.56
-14.29
-18.71
-23.05
-27.69
-33.03
-39.36
-46.72
-54.89
-63.28
-70.94
-76.52
-78.46
-75.43
-66.86
-53.29
-36.32
-18.18
-1.01
13.69
25.24
33.62
39.08
41.88
42.19
40.35
36.85
32.46
28.04
24.34
21.83
20.62
20.48
21.00
21.68
22.17
22.28
22.05
21.53
20.64
19.10
16.48
12.44
6.96
0.44
-6.39
-12.75
-18.13
-22.51
-26.33
-30.36
-35.47
-42.28
-50.92
-60.79
-70.49
-78.01
-81.21
-78.43
-69.17
-54.26
-35.70
-16.07
2.26
17.69
29.61
38.16
43.84
47.09
48.15
47.11
44.19
39.88
34.98
30.49
27.25
25.67
25.62
26.54
27.68
28.44
28.55
28.03
27.06
25.74
23.93
21.34
17.62
12.58
6.34
-0.66
-7.78
-14.43
-20.23
-25.19
-29.71
-34.40
-39.98
-46.99
-55.62
-65.48
-75.52
-84.06
-89.10
-88.80
-82.09
-69.10
-51.24
-30.84
-10.44
7.83
22.71
33.88
41.67
46.64
49.32
50.12
49.33
47.31
44.57
41.69
39.25
37.67
37.04
37.18
37.70
38.17
38.28
37.90
37.04
35.82
34.30
32.43
30.06
26.98
22.95
17.87
11.80
5.01
-2.07
-8.93
-15.15
-20.50
-25.05
-29.23
-33.64
-38.99
-45.86
-54.46
-64.43
-74.73
-83.67
-89.20
-89.41
-83.13
-70.37
-52.44
-31.61
-10.57
8.32
23.58
34.74
42.18
46.72
49.22
50.27
50.19
49.15
47.34
45.07
42.73
40.73
39.32
38.62
38.54
38.84
39.23
39.42
39.20
38.43
37.08
35.19
32.75
29.70
25.92
21.24
15.63
9.23
2.40
-4.39
-10.72
-16.35
-21.32
-25.91
-30.52
-35.62
-41.62
-48.79
-57.09
-65.99
-74.37
-80.54
-82.64
-79.16
-69.52
-54.44
-35.78
-16.04
2.43
17.98
29.89
38.20
43.36
45.83
45.96
44.06
40.57
36.17
31.74
28.15
25.97
25.28
25.68
26.51
27.14
27.27
26.92
26.32
25.70
25.00
23.88
21.84
18.41
13.48
7.32
0.54
-6.12
-12.07
-17.06
-21.19
-24.96
-29.08
-34.31
-41.24
-49.98
-59.92
-69.66
-77.17
-80.32
-77.53
-68.32
-53.54
-35.16
-15.74
2.27
17.13
28.01
35.02
38.76
40.03
39.51
37.68
34.90
31.54
27.99
24.68
21.89
19.64
17.87
16.47
15.43
14.88
14.89
15.29
15.62
15.21
13.40
9.83
4.53
-2.06
-9.23
-16.19
-22.39
-27.60
-32.14
-36.71
-42.17
-49.14
-57.55
-66.38
-73.89
-77.96
-76.80
-69.51
-56.40
-38.97
-19.48
-0.33
16.52
29.91
39.52
45.58
48.52
48.71
46.51
42.48
37.42
32.41
28.46
26.15
25.43
25.71
26.24
26.48
26.27
25.77
25.20
24.56
23.55
21.68
18.48
13.72
7.56
0.50
-6.76
-13.55
-19.48
-24.58
-29.32
-34.43
-40.70
-48.62
-58.16
-68.53
-78.20
-85.13
-87.24
-83.04
-72.23
-55.83
-35.99
-15.36
3.71
19.72
32.18
41.32
47.63
51.53
53.18
52.71
50.39
46.81
42.85
39.38
37.05
36.06
36.13
36.72
37.19
37.14
36.44
35.23
33.73
32.03
29.96
27.18
23.28
18.08
11.79
4.92
-1.88
-8.07
-13.54
-18.52
-23.57
-29.31
-36.23
-44.49
-53.93
-63.89
-73.17
-80.14
-82.98
-80.13
-70.90
-55.86
-36.82
-16.33
3.03
19.49
32.28
41.62
48.16
52.48
54.89
55.49
54.41
52.01
48.90
45.73
43.04
41.12
39.99
39.58
39.74
40.34
41.17
42.00
42.51
42.36
41.21
38.83
35.19
30.49
25.11
19.53
14.07
8.80
3.58
-1.82
-7.54
-13.45
-19.32
-24.94
-30.24
-35.37
-40.73
-46.74
-53.79
-61.97
-70.81
-79.12
-85.06
-86.55
-82.01
-71.00
-54.52
-34.78
-14.42
4.29
19.97
32.14
40.94
46.63
49.44
49.62
47.54
43.86
39.46
35.20
31.74
29.50
28.58
28.88
30.11
31.79
33.38
34.35
34.41
33.51
31.84
29.61
26.93
23.70
19.70
14.78
8.99
2.65
-3.78
-9.80
-15.16
-19.83
-24.06
-28.26
-32.94
-38.56
-45.46
-53.63
-62.57
-71.10
-77.49
-79.80
-76.53
-67.13
-52.36
-34.12
-14.86
3.15
18.36
30.14
38.49
43.70
46.04
45.67
42.84
38.07
32.24
26.42
21.65
18.58
17.34
17.55
18.54
19.63
20.41
20.75
20.79
20.64
20.20
19.08
16.76
12.83
7.28
0.57
-6.49
-13.07
-18.63
-23.14
-27.10
-31.31
-36.61
-43.53
-52.16
-61.90
-71.51
-79.20
-83.00
-81.27
-73.28
-59.49
-41.58
-21.93
-2.95
13.54
26.62
36.17
42.59
46.38
47.94
47.59
45.69
42.72
39.28
36.00
33.38
31.68
30.84
30.59
30.57
30.47
30.13
29.56
28.84
27.94
26.63
24.50
21.08
16.07
9.54
1.97
-5.87
-13.21
-19.53
-24.73
-29.17
-33.50
-38.46
-44.66
-52.43
-61.69
-71.76
-81.38
-88.72
-91.82
-89.06
-79.80
-64.67
-45.54
-24.99
-5.52
11.07
23.97
33.30
39.66
43.73
46.00
46.71
46.04
44.27
41.83
39.29
37.16
35.73
35.03
34.81
34.78
34.72
34.54
34.25
33.82
33.07
31.71
29.35
25.71
20.76
14.70
7.98
1.13
-5.41
-11.33
-16.57
-21.25
-25.67
-30.24
-35.40
-41.57
-49.04
-57.77
-67.13
-75.78
-81.84
-83.32
-78.82
-68.07
-52.14
-33.10
-13.40
4.83
20.26
32.36
41.22
47.15
50.50
51.60
50.79
48.55
45.42
42.00
38.84
36.35
34.76
34.09
34.14
34.59
35.15
35.55
35.65
35.37
34.64
33.27
30.99
27.50
22.64
16.51
9.49
2.21
-4.64
-10.58
-15.47
-19.55
-23.33
-27.45
-32.48
-38.86
-46.70
-55.68
-64.94
-72.99
-77.96
-78.08
-72.30
-60.69
-44.55
-26.03
-7.48
9.16
22.72
32.82
39.60
43.47
44.83
44.09
41.69
38.18
34.16
30.28
27.05
24.79
23.52
23.09
23.18
23.52
23.89
24.14
24.09
23.48
21.93
19.05
14.64
8.78
1.99
-4.96
-11.30
-16.49
-20.52
-23.90
-27.49
-32.20
-38.62
-46.73
-55.75
-64.22
-70.27
-72.08
-68.40
-58.96
-44.63
-27.26
-9.20
7.34
20.77
30.45
36.49
39.46
40.04
38.77
36.07
32.37
28.22
24.24
20.95
18.67
17.39
16.85
16.69
16.58
16.25
15.53
14.26
12.26
9.39
5.57
0.84
-4.57
-10.32
-16.10
-21.70
-27.20
-32.93
-39.38
-46.94
-55.51
-64.31
-71.87
-76.32
-75.98
-69.90
-58.23
-42.29
-24.16
-6.11
9.95
22.89
32.39
38.75
42.54
44.30
44.39
43.08
40.61
37.32
33.67
30.13
27.15
24.99
23.77
23.41
23.63
23.98
23.90
22.80
20.27
16.17
10.72
4.35
-2.35
-8.87
-14.88
-20.35
-25.58
-31.18
-37.82
-45.99
-55.56
-65.60
-74.30
-79.43
-79.02
-72.03
-58.77
-40.88
-20.83
-1.20
15.97
29.52
39.23
45.52
49.09
50.63
50.65
49.53
47.60
45.20
42.69
40.38
38.45
36.91
35.68
34.57
33.45
32.24
30.86
29.17
26.95
23.96
19.98
14.94
9.07
2.79
-3.37
-9.03
-14.16
-19.19
-24.87
-31.93
-40.64
-50.49
-60.09
-67.50
-70.69
-68.22
-59.74
-46.12
-29.18
-11.19
5.83
20.51
32.38
41.53
48.33
53.02
55.62
56.05
54.44
51.26
47.33
43.56
40.71
39.10
38.67
38.97
39.48
39.68
39.23
37.99
36.01
33.42
30.33
26.73
22.50
17.42
11.46
4.81
-2.06
-8.56
-14.19
-18.82
-22.77
-26.65
-31.26
-37.21
-44.77
-53.68
-63.01
-71.33
-76.84
-77.90
-73.44
-63.41
-48.86
-31.67
-14.04
2.10
15.56
25.89
33.24
37.99
40.48
40.93
39.59
36.85
33.35
29.89
27.17
25.61
25.19
25.52
26.17
26.76
27.15
27.32
27.22
26.64
25.16
22.34
17.91
11.93
4.91
-2.31
-8.83
-14.01
-17.71
-20.42
-23.10
-26.85
-32.55
-40.41
-49.86
-59.57
-67.66
-72.20
-71.60
-65.12
-53.10
-37.02
-19.06
-1.55
13.62
25.37
33.49
38.35
40.54
40.61
39.01
36.21
32.75
29.26
26.35
24.36
23.29
22.82
22.50
21.91
20.92
19.65
18.37
17.31
16.37
15.09
12.85
9.12
3.75
-2.90
-10.10
-17.02
-23.08
-28.17
-32.62
-37.10
-42.36
-48.93
-56.83
-65.31
-72.85
-77.44
-77.15
-70.85
-58.75
-42.41
-24.21
-6.61
8.63
20.74
29.81
36.33
40.81
43.48
44.43
43.78
41.88
39.30
36.76
34.89
33.96
33.93
34.33
34.60
34.20
32.95
30.99
28.71
26.51
24.50
22.45
19.84
16.13
11.04
4.70
-2.38
-9.49
-16.00
-21.61
-26.38
-30.73
-35.23
-40.41
-46.66
-54.08
-62.40
-70.89
-78.29
-82.96
-83.23
-77.97
-67.07
-51.62
-33.60
-15.25
1.60
15.90
27.38
36.21
42.67
46.98
49.27
49.80
48.97
47.38
45.61
44.21
43.44
43.31
43.56
43.82
43.77
43.30
42.50
41.56
40.56
39.35
37.57
34.85
31.10
26.54
21.62
16.80
12.24
7.84
3.27
-1.79
-7.51
-13.78
-20.29
-26.53
-32.02
-36.45
-39.89
-42.83
-46.11
-50.71
-57.35
-66.15
-76.39
-86.45
-94.14
-97.14
-93.71
-83.29
-66.80
-46.43
-25.06
-5.34
10.99
23.33
32.11
38.17
42.36
45.22
47.01
47.90
48.06
47.77
47.31
46.90
46.62
46.41
46.17
45.80
45.30
44.86
44.67
44.83
45.15
45.17
44.29
42.03
38.24
33.22
27.57
21.98
16.99
12.88
9.58
6.68
3.57
-0.39
-5.63
-12.12
-19.35
-26.47
-32.70
-37.67
-41.57
-45.00
-48.69
-53.33
-59.29
-66.56
-74.65
-82.42
-88.18
-89.97
-86.23
-76.38
-61.19
-42.57
-22.99
-4.70
10.81
22.90
31.59
37.21
40.15
40.83
39.71
37.32
34.21
30.97
28.09
26.00
24.95
25.00
25.94
27.28
28.47
29.06
28.86
27.96
26.63
25.15
23.58
21.71
19.11
15.41
10.48
4.56
-1.77
-7.90
-13.37
-18.10
-22.35
-26.54
-31.09
-36.36
-42.60
-49.91
-58.15
-66.61
-73.98
-78.43
-78.18
-72.15
-60.45
-44.46
-26.33
-8.41
7.46
20.22
29.53
35.51
38.48
38.86
37.08
33.70
29.38
24.92
21.03
18.25
16.75
16.39
16.79
17.52
18.26
18.86
19.25
19.25
18.51
16.59
13.16
8.22
2.11
-4.58
-11.21
-17.33
-22.78
-27.79
-32.83
-38.54
-45.43
-53.56
-62.30
-70.26
-75.57
-76.44
-71.76
-61.56
-46.99
-29.96
-12.56
3.45
16.96
27.49
35.07
39.98
42.56
43.16
42.08
39.62
36.20
32.27
28.35
24.93
22.33
20.73
20.11
20.27
20.83
21.32
21.20
19.92
17.21
13.02
7.64
1.57
-4.65
-10.53
-15.87
-20.82
-25.87
-31.74
-39.10
-48.17
-58.29
-67.88
-74.69
-76.44
-71.64
-60.12
-43.16
-23.16
-2.87
15.28
29.77
40.07
46.45
49.58
50.25
49.15
46.78
43.60
39.98
36.30
32.89
30.05
27.96
26.71
26.21
26.21
26.33
26.07
24.94
22.57
18.87
13.98
8.26
2.11
-4.10
-10.14
-15.99
-21.86
-28.20
-35.50
-44.12
-53.94
-64.08
-72.93
-78.45
-78.75
-72.70
-60.39
-43.14
-23.18
-2.97
15.39
30.57
42.08
50.05
54.92
57.18
57.26
55.58
52.62
48.95
45.13
41.60
38.59
36.17
34.31
33.00
32.25
32.00
32.03
31.87
30.94
28.67
24.71
19.04
11.98
4.12
-3.80
-11.12
-17.44
-22.79
-27.67
-32.93
-39.50
-47.87
-57.73
-67.74
-75.74
-79.32
-76.60
-66.89
-51.07
-31.37
-10.59
8.64
24.61
36.75
45.31
50.93
54.16
55.30
54.58
52.32
49.07
45.56
42.46
40.18
38.75
37.87
37.11
36.16
34.85
33.30
31.75
30.43
29.41
28.44
26.95
24.29
19.95
13.86
6.49
-1.31
-8.60
-14.82
-19.90
-24.32
-28.86
-34.25
-40.96
-49.01
-58.02
-67.14
-75.07
-80.16
-80.73
-75.55
-64.33
-48.00
-28.56
-8.51
9.86
25.07
36.59
44.65
49.79
52.52
53.12
51.85
49.10
45.53
42.00
39.25
37.71
37.32
37.62
38.04
38.13
37.73
36.90
35.79
34.47
32.87
30.85
28.27
25.01
21.01
16.23
10.69
4.49
-2.10
-8.69
-14.88
-20.36
-25.09
-29.23
-33.22
-37.63
-43.05
-49.90
-58.15
-67.06
-75.15
-80.41
-80.90
-75.37
-63.82
-47.57
-28.87
-10.21
6.35
19.62
29.24
35.42
38.57
39.10
37.42
34.06
29.78
25.40
21.71
19.16
17.78
17.28
17.21
17.22
17.15
17.03
16.99
17.07
17.15
16.85
15.71
13.25
9.22
3.76
-2.61
-9.14
-15.09
-20.06
-24.09
-27.68
-31.57
-36.49
-42.89
-50.69
-59.10
-66.69
-71.57
-71.98
-66.84
-56.16
-41.13
-23.69
-6.02
10.10
23.47
33.56
40.20
43.50
43.74
41.41
37.27
32.22
27.19
22.97
20.05
18.51
18.13
18.41
18.80
18.88
18.48
17.70
16.67
15.38
13.55
10.69
6.40
0.61
-6.25
-13.36
-19.90
-25.33
-29.65
-33.37
-37.35
-42.43
-49.19
-57.67
-67.24
-76.55
-83.73
-86.79
-84.18
-75.30
-60.81
-42.48
-22.69
-3.81
12.41
25.07
34.06
39.74
42.67
43.34
42.23
39.84
36.77
33.64
30.99
29.07
27.91
27.30
27.00
26.81
26.63
26.44
26.15
25.53
24.25
21.93
18.26
13.14
6.81
-0.17
-7.05
-13.12
-18.04
-21.98
-25.75
-30.43
-36.99
-45.79
-56.31
-67.11
-76.07
-80.95
-79.92
-72.17
-58.24
-39.87
-19.60
-0.05
16.74
29.74
38.85
44.58
47.60
48.53
47.84
45.95
43.35
40.58
38.14
36.35
35.26
34.67
34.27
33.72
32.85
31.82
30.93
30.45
30.33
30.03
28.65
25.32
19.69
12.15
3.74
-4.32
-11.10
-16.31
-20.30
-23.81
-27.74
-32.88
-39.71
-48.26
-57.92
-67.35
-74.62
-77.63
-74.75
-65.40
-50.28
-31.22
-10.68
8.92
25.72
38.71
47.71
53.03
55.26
55.01
52.84
49.41
45.43
41.69
38.88
37.39
37.19
37.81
38.57
38.83
38.24
36.86
35.00
33.09
31.35
29.64
27.50
24.36
19.78
13.71
6.59
-0.84
-7.80
-13.75
-18.59
-22.61
-26.37
-30.56
-35.81
-42.56
-50.89
-60.23
-69.32
-76.30
-79.15
-76.25
-67.07
-52.40
-34.15
-14.80
3.36
18.76
30.69
39.11
44.26
46.39
45.71
42.57
37.65
32.05
27.08
23.81
22.72
23.53
25.30
26.96
27.77
27.55
26.61
25.49
24.49
23.48
22.00
19.46
15.48
10.08
3.70
-2.99
-9.33
-14.92
-19.67
-23.88
-28.06
-32.83
-38.74
-46.04
-54.55
-63.44
-71.27
-76.22
-76.52
-71.07
-59.87
-44.15
-25.99
-7.70
8.83
22.52
33.05
40.55
45.23
47.23
46.68
43.96
39.77
35.09
30.90
27.91
26.32
25.91
26.17
26.55
26.68
26.46
25.94
25.21
24.25
22.84
20.60
17.17
12.30
6.11
-0.96
-8.25
-15.10
-21.08
-26.19
-30.81
-35.61
-41.31
-48.46
-57.17
-66.89
-76.40
-83.87
-87.28
-84.97
-76.24
-61.59
-42.77
-22.19
-2.35
14.84
28.36
38.06
44.40
48.02
49.52
49.39
47.95
45.58
42.74
39.97
37.77
36.47
36.06
36.18
36.32
36.00
35.01
33.46
31.66
29.90
28.22
26.29
23.58
19.60
14.18
7.61
0.50
-6.37
-12.48
-17.66
-22.19
-26.66
-31.68
-37.73
-45.07
-53.64
-63.04
-72.46
-80.49
-85.33
-85.14
-78.66
-65.79
-47.83
-27.18
-6.58
11.63
26.10
36.50
43.27
47.11
48.65
48.42
46.89
44.58
42.09
39.98
38.66
38.25
38.55
39.09
39.28
38.66
37.06
34.66
31.97
29.48
27.42
25.65
23.67
20.89
16.87
11.48
4.95
-2.19
-9.29
-15.79
-21.34
-25.91
-29.83
-33.71
-38.25
-44.08
-51.45
-60.16
-69.29
-77.27
-82.10
-81.81
-75.10
-61.92
-43.64
-22.73
-2.00
16.19
30.52
40.68
47.05
50.33
51.17
50.14
47.81
44.79
41.68
39.05
37.23
36.32
36.18
36.48
36.74
36.56
35.71
34.19
32.25
30.21
28.27
26.41
24.34
21.65
17.99
13.14
7.15
0.38
-6.61
-13.21
-18.95
-23.71
-27.78
-31.78
-36.47
-42.49
-50.07
-59.00
-68.38
-76.75
-82.24
-82.99
-77.76
-66.41
-50.12
-31.07
-11.84
5.41
19.35
29.49
35.96
39.13
39.41
37.35
33.68
29.34
25.32
22.34
20.68
20.14
20.29
20.61
20.83
20.84
20.73
20.55
20.24
19.57
18.22
15.84
12.23
7.45
1.79
-4.28
-10.22
-15.67
-20.48
-24.84
-29.18
-34.15
-40.28
-47.79
-56.33
-64.82
-71.59
-74.77
-72.84
-65.12
-52.10
-35.31
-16.87
1.05
16.79
29.43
38.74
44.92
48.32
49.16
47.66
44.17
39.37
34.27
29.98
27.36
26.69
27.52
28.94
30.02
30.20
29.41
28.00
26.39
24.74
22.82
20.16
16.26
10.96
4.47
-2.61
-9.61
-15.99
-21.56
-26.48
-31.19
-36.25
-42.23
-49.49
-58.11
-67.65
-77.02
-84.50
-88.06
-85.92
-77.26
-62.59
-43.74
-23.27
-3.64
13.37
27.01
37.30
44.60
49.24
51.41
51.30
49.26
45.97
42.27
39.00
36.69
35.50
35.22
35.44
35.75
35.80
35.47
34.77
33.75
32.41
30.61
28.10
24.57
19.85
13.97
7.27
0.27
-6.42
-12.35
-17.39
-21.82
-26.21
-31.23
-37.44
-45.05
-53.87
-63.19
-71.87
-78.38
-81.03
-78.44
-69.92
-55.92
-38.00
-18.48
0.27
16.47
29.27
38.73
45.31
49.48
51.50
51.46
49.59
46.39
42.69
39.35
37.00
35.82
35.56
35.73
35.82
35.51
34.75
33.65
32.35
30.83
28.83
25.99
21.99
16.71
10.43
3.65
-2.96
-8.85
-13.73
-17.69
-21.14
-24.77
-29.32
-35.37
-43.11
-52.22
-61.77
-70.32
-76.18
-77.74
-73.89
-64.40
-50.07
-32.63
-14.32
2.73
16.99
27.79
35.24
39.81
42.02
42.21
40.67
37.76
34.06
30.19
26.74
24.00
22.04
20.72
19.95
19.71
19.99
20.74
21.70
22.41
22.23
20.50
16.78
11.04
3.83
-3.91
-11.10
-16.98
-21.38
-24.84
-28.33
-32.90
-39.17
-47.15
-56.06
-64.40
-70.18
-71.43
-66.76
-55.88
-39.90
-21.08
-2.16
14.44
27.21
35.67
40.16
41.44
40.31
37.50
33.70
29.60
25.82
22.85
20.92
20.00
19.79
19.85
19.74
19.14
17.94
16.20
14.08
11.65
8.84
5.46
1.36
-3.46
-8.77
-14.32
-19.98
-25.87
-32.31
-39.70
-48.18
-57.45
-66.59
-74.09
-78.13
-77.12
-70.17
-57.61
-40.91
-22.26
-3.92
12.34
25.58
35.53
42.31
46.18
47.48
46.68
44.43
41.39
38.09
34.89
31.93
29.34
27.35
26.19
25.98
26.56
27.44
27.96
27.52
25.71
22.44
17.83
12.16
5.78
-0.89
-7.44
-13.51
-18.95
-23.97
-29.18
-35.38
-43.32
-53.11
-63.89
-73.80
-80.39
-81.36
-75.43
-62.87
-45.37
-25.52
-5.94
11.35
25.23
35.42
42.22
46.17
47.91
48.03
47.07
45.47
43.59
41.69
39.95
38.45
37.14
35.87
34.51
33.04
31.61
30.48
29.76
29.19
28.21
26.04
22.15
16.45
9.37
1.68
-5.84
-12.64
-18.59
-23.96
-29.32
-35.35
-42.57
-50.98
-59.89
-67.82
-72.91
-73.41
-68.28
-57.53
-42.30
-24.45
-6.08
11.00
25.58
37.11
45.48
50.91
53.63
53.97
52.30
49.24
45.54
42.06
39.52
38.27
38.21
38.84
39.43
39.37
38.34
36.36
33.83
31.23
28.83
26.60
24.17
20.97
16.58
10.94
4.42
-2.32
-8.72
-14.49
-19.74
-24.91
-30.51
-36.94
-44.41
-52.75
-61.41
-69.35
-75.13
-77.16
-74.20
-65.80
-52.53
-35.97
-18.18
-1.23
13.39
24.92
33.23
38.54
41.20
41.59
40.10
37.26
33.73
30.25
27.44
25.71
25.07
25.23
25.68
25.95
25.76
25.12
24.22
23.21
22.08
20.51
17.97
14.04
8.62
2.05
-4.90
-11.42
-16.93
-21.32
-25.03
-28.78
-33.35
-39.28
-46.72
-55.32
-64.21
-71.99
-76.94
-77.45
-72.45
-61.88
-46.83
-29.28
-11.51
4.52
17.62
27.50
34.35
38.62
40.62
40.56
38.68
35.43
31.55
27.93
25.32
24.11
24.19
24.99
25.82
26.14
25.75
24.85
23.71
22.51
21.00
18.65
14.92
9.56
2.86
-4.41
-11.32
-17.21
-21.88
-25.71
-29.43
-33.88
-39.74
-47.31
-56.37
-66.04
-74.84
-80.84
-82.16
-77.51
-66.72
-50.91
-32.17
-13.01
4.43
18.79
29.69
37.42
42.55
45.62
46.95
46.74
45.25
42.88
40.22
37.85
36.22
35.47
35.45
35.79
36.06
35.94
35.27
34.06
32.46
30.59
28.47
25.97
22.80
18.68
13.46
7.26
0.46
-6.38
-12.73
-18.32
-23.16
-27.58
-32.06
-37.08
-43.07
-50.27
-58.67
-67.81
-76.66
-83.60
-86.71
-84.30
-75.53
-60.90
-42.19
-21.96
-2.82
13.35
25.71
34.43
40.25
43.98
46.18
47.11
46.85
45.57
43.58
41.35
39.37
38.03
37.48
37.64
38.30
39.11
39.74
39.85
39.22
37.72
35.36
32.25
28.56
24.38
19.77
14.69
9.11
3.10
-3.13
-9.30
-15.14
-20.45
-25.23
-29.62
-34.00
-38.81
-44.55
-51.59
-59.94
-69.00
-77.45
-83.42
-84.87
-80.37
-69.57
-53.57
-34.54
-15.15
2.33
16.51
27.05
34.36
39.09
41.72
42.50
41.55
39.12
35.73
32.09
28.96
26.86
25.98
26.20
27.12
28.30
29.38
30.09
30.33
30.03
29.11
27.44
24.80
21.01
16.00
9.94
3.26
-3.49
-9.75
-15.13
-19.62
-23.47
-27.19
-31.41
-36.67
-43.33
-51.41
-60.46
-69.48
-76.97
-81.17
-80.55
-74.26
-62.51
-46.59
-28.58
-10.73
5.14
17.91
27.27
33.42
36.78
37.76
36.76
34.26
30.87
27.32
24.29
22.23
21.25
21.16
21.59
22.20
22.75
23.15
23.34
23.20
22.49
20.84
17.88
13.40
7.52
0.69
-6.38
-12.99
-18.70
-23.53
-27.95
-32.73
-38.62
-46.08
-54.92
-64.17
-72.14
-76.77
-76.22
-69.47
-56.80
-39.78
-20.77
-2.18
14.19
27.43
37.45
44.50
48.88
50.76
50.34
48.00
44.41
40.42
36.85
34.22
32.68
32.02
31.83
31.67
31.23
30.42
29.26
27.93
26.43
24.58
22.02
18.34
13.26
6.93
-0.15
-7.27
-13.79
-19.41
-24.29
-28.94
-34.09
-40.40
-48.22
-57.46
-67.42
-76.79
-83.79
-86.54
-83.54
-74.20
-59.14
-40.11
-19.54
0.14
17.15
30.61
40.52
47.32
51.48
53.34
53.12
51.17
48.14
44.92
42.42
41.18
41.16
41.85
42.49
42.47
41.58
40.00
38.13
36.36
34.83
33.37
31.55
28.84
24.81
19.33
12.62
5.25
-2.06
-8.71
-14.42
-19.36
-24.12
-29.40
-35.88
-43.87
-53.15
-62.82
-71.35
-76.80
-77.41
-72.07
-60.83
-44.91
-26.38
-7.54
9.66
23.97
34.91
42.50
46.99
48.70
48.01
45.43
41.69
37.65
34.17
31.90
31.06
31.37
32.18
32.75
32.58
31.62
30.14
28.57
27.09
25.49
23.23
19.70
14.64
8.27
1.28
-5.49
-11.40
-16.24
-20.31
-24.26
-28.79
-34.47
-41.59
-49.95
-58.82
-66.93
-72.59
-74.07
-70.15
-60.58
-46.33
-29.30
-11.79
4.24
17.53
27.66
34.68
38.83
40.32
39.37
36.42
32.17
27.57
23.56
20.75
19.36
19.17
19.72
20.51
21.18
21.55
21.56
21.18
20.25
18.47
15.48
11.08
5.34
-1.25
-7.98
-14.17
-19.42
-23.78
-27.74
-32.03
-37.36
-44.25
-52.72
-62.11
-71.01
-77.41
-79.17
-74.71
-63.65
-47.09
-27.36
-7.26
10.75
25.15
35.55
42.34
46.25
47.94
47.89
46.42
43.93
40.90
37.90
35.41
33.71
32.82
32.46
32.24
31.80
30.93
29.70
28.34
27.10
25.99
24.79
22.93
19.85
15.15
8.89
1.56
-6.07
-13.21
-19.32
-24.24
-28.27
-31.98
-36.05
-41.16
-47.76
-55.97
-65.33
-74.71
-82.39
-86.26
-84.46
-75.99
-61.20
-41.83
-20.55
-0.18
17.10
30.24
39.33
45.15
48.64
50.47
50.97
50.28
48.59
46.27
43.86
41.90
40.72
40.36
40.57
40.97
41.22
41.04
40.36
39.16
37.52
35.50
33.13
30.36
27.06
23.04
18.19
12.51
6.22
-0.36
-6.84
-12.91
-18.44
-23.55
-28.49
-33.67
-39.49
-46.29
-54.13
-62.66
-70.91
-77.38
-80.30
-78.14
-70.17
-56.78
-39.51
-20.61
-2.43
13.16
25.16
33.43
38.42
40.77
41.11
39.89
37.48
34.32
30.99
28.09
26.12
25.29
25.39
25.94
26.39
26.31
25.57
24.36
22.97
21.64
20.39
18.91
16.74
13.40
8.66
2.65
-4.10
-10.88
-17.02
-22.13
-26.28
-29.93
-33.77
-38.54
-44.72
-52.36
-60.96
-69.40
-76.10
-79.25
-77.29
-69.45
-56.07
-38.67
-19.54
-1.16
14.48
26.25
33.96
38.02
39.16
38.10
35.52
32.07
28.38
25.07
22.55
20.97
20.17
19.83
19.62
19.34
18.97
18.56
18.17
17.72
16.93
15.34
12.48
8.05
2.11
-4.83
-11.95
-18.42
-23.74
-28.03
-32.04
-36.86
-43.46
-52.17
-62.28
-72.10
-79.31
-81.63
-77.61
-67.10
-51.33
-32.50
-13.11
4.73
19.70
31.31
39.64
45.04
47.79
48.13
46.31
42.86
38.54
34.28
30.91
28.83
27.99
27.88
27.89
27.60
26.94
26.10
25.34
24.64
23.64
21.72
18.36
13.42
7.24
0.52
-5.97
-11.74
-16.70
-21.16
-25.70
-30.93
-37.37
-45.33
-54.68
-64.76
-74.23
-81.19
-83.58
-79.82
-69.47
-53.46
-33.95
-13.61
5.19
20.92
33.07
41.89
47.81
51.20
52.28
51.25
48.53
44.84
41.05
37.95
35.98
35.16
35.13
35.39
35.51
35.29
34.74
34.01
33.20
32.19
30.67
28.13
24.16
18.60
11.74
4.23
-3.09
-9.57
-14.89
-19.31
-23.43
-28.10
-34.02
-41.54
-50.39
-59.62
-67.62
-72.46
-72.33
-66.19
-54.16
-37.64
-18.90
-0.41
15.86
28.82
38.28
44.60
48.30
49.77
49.25
46.98
43.39
39.16
35.07
31.82
29.79
28.93
28.85
29.02
29.07
28.88
28.59
28.32
28.00
27.15
25.11
21.32
15.64
8.49
0.74
-6.61
-12.78
-17.52
-21.15
-24.44
-28.32
-33.62
-40.73
-49.41
-58.73
-67.13
-72.74
-73.82
-69.25
-58.92
-43.83
-25.92
-7.53
9.12
22.48
31.83
37.24
39.26
38.60
35.95
31.93
27.15
22.25
17.86
14.54
12.56
11.96
12.46
13.65
15.04
16.20
16.79
16.63
15.55
13.45
10.26
5.99
0.78
-5.02
-10.96
-16.61
-21.76
-26.61
-31.74
-37.78
-45.15
-53.57
-61.93
-68.40
-70.99
-68.14
-59.31
-45.20
-27.63
-8.98
8.47
23.11
34.21
41.74
46.08
47.68
46.89
44.10
39.86
34.97
30.40
26.94
25.01
24.48
24.80
25.29
25.43
25.06
24.29
23.32
22.16
20.58
18.13
14.41
9.23
2.85
-4.17
-11.13
-17.45
-22.95
-27.84
-32.68
-38.18
-44.98
-53.35
-63.04
-73.06
-81.75
-87.00
-86.91
-80.31
-67.34
-49.42
-28.94
-8.51
9.73
24.54
35.62
43.32
48.21
50.84
51.55
50.60
48.38
45.39
42.32
39.82
38.25
37.57
37.36
37.05
36.29
35.07
33.71
32.59
31.83
31.11
29.77
27.05
22.53
16.26
8.85
1.18
-5.86
-11.73
-16.35
-20.14
-23.86
-28.34
-34.27
-41.96
-51.17
-61.01
-69.97
-76.13
-77.53
-72.82
-61.76
-45.44
-26.06
-6.29
11.52
25.97
36.72
44.21
49.12
51.92
52.81
51.87
49.34
45.78
42.01
38.82
36.74
35.83
35.81
36.15
36.34
36.04
35.16
33.79
32.11
30.20
27.99
25.23
21.60
16.86
11.02
4.43
-2.37
-8.78
-14.40
-19.16
-23.33
-27.42
-32.04
-37.72
-44.74
-53.08
-62.18
-70.88
-77.55
-80.34
-77.76
-69.18
-55.19
-37.51
-18.50
-0.49
14.78
26.43
34.35
38.88
40.49
39.64
36.82
32.64
27.91
23.48
20.05
17.97
17.15
17.19
17.59
18.00
18.27
18.41
18.46
18.24
17.37
15.38
11.88
6.85
0.61
-6.16
-12.65
-18.26
-22.72
-26.24
-29.46
-33.24
-38.39
-45.34
-53.85
-62.86
-70.59
-74.95
-74.15
-67.36
-54.97
-38.52
-20.23
-2.30
13.57
26.41
35.83
41.81
44.51
44.24
41.53
37.17
32.16
27.46
23.83
21.66
20.86
21.07
21.73
22.35
22.60
22.40
21.76
20.68
18.99
16.34
12.42
7.13
0.70
-6.28
-13.12
-19.29
-24.61
-29.35
-34.10
-39.58
-46.40
-54.76
-64.17
-73.42
-80.60
-83.66
-80.97
-72.00
-57.52
-39.39
-20.01
-1.57
14.40
27.24
36.89
43.62
47.79
49.72
49.75
48.34
46.05
43.44
40.99
39.00
37.54
36.46
35.58
34.73
33.80
32.84
31.89
30.91
29.72
27.93
25.08
20.82
15.05
8.10
0.61
-6.61
-12.92
-18.04
-22.18
-26.06
-30.62
-36.73
-44.78
-54.37
-64.22
-72.36
-76.58
-75.12
-67.25
-53.53
-35.71
-16.18
2.73
19.30
32.66
42.71
49.80
54.32
56.63
56.97
55.65
53.13
50.04
47.03
44.65
43.16
42.51
42.44
42.59
42.65
42.44
41.85
40.83
39.30
37.15
34.31
30.76
26.54
21.67
16.14
9.94
3.18
-3.84
-10.66
-16.80
-22.01
-26.42
-30.57
-35.17
-40.90
-48.14
-56.79
-66.23
-75.24
-82.17
-85.11
-82.52
-73.70
-59.19
-40.78
-20.95
-2.13
13.93
26.44
35.43
41.28
44.47
45.34
44.23
41.55
37.90
34.01
30.57
28.09
26.77
26.50
26.95
27.65
28.24
28.52
28.49
28.24
27.77
26.86
25.11
22.04
17.37
11.18
3.95
-3.56
-10.55
-16.46
-21.18
-25.09
-28.87
-33.32
-39.03
-46.24
-54.68
-63.48
-71.28
-76.41
-77.27
-72.81
-62.86
-48.34
-30.97
-12.90
3.93
18.17
29.16
36.78
41.25
42.92
42.24
39.79
36.26
32.39
28.82
25.96
23.97
22.76
22.13
21.82
21.63
21.43
21.18
20.85
20.33
19.39
17.60
14.53
9.89
3.80
-3.25
-10.45
-17.01
-22.52
-27.07
-31.23
-35.89
-41.89
-49.71
-59.19
-69.32
-78.40
-84.27
-84.96
-79.31
-67.41
-50.65
-31.28
-11.76
5.93
20.59
31.83
39.78
44.77
47.15
47.29
45.65
42.82
39.48
36.25
33.60
31.72
30.60
30.02
29.72
29.45
29.05
28.45
27.64
26.69
25.58
24.18
22.20
19.22
14.91
9.17
2.31
-4.99
-11.96
-18.01
-23.00
-27.32
-31.68
-36.91
-43.62
-51.93
-61.41
-70.94
-78.83
-83.14
-82.16
-74.95
-61.82
-44.27
-24.58
-5.17
12.06
26.01
36.42
43.50
47.61
49.13
48.40
45.86
42.16
38.10
34.55
32.16
31.20
31.48
32.46
33.43
33.81
33.35
32.15
30.55
28.84
27.15
25.34
23.10
20.11
16.19
11.32
5.73
-0.26
-6.25
-11.92
-17.10
-21.87
-26.56
-31.65
-37.65
-44.88
-53.25
-62.07
-70.00
-75.28
-76.11
-71.21
-60.33
-44.48
-25.70
-6.45
11.07
25.44
36.14
43.31
47.34
48.61
47.48
44.39
40.06
35.42
31.42
28.71
27.47
27.39
27.87
28.28
28.26
27.77
27.02
26.24
25.49
24.53
22.86
19.98
15.60
9.90
3.45
-2.95
-8.63
-13.32
-17.23
-20.93
-25.15
-30.52
-37.32
-45.42
-54.17
-62.44
-68.71
-71.41
-69.29
-61.84
-49.56
-33.87
-16.80
-0.37
13.77
24.72
32.25
36.55
38.01
37.02
33.96
29.32
23.82
18.32
13.71
10.65
9.36
9.57
10.67
11.98
12.97
13.36
13.08
12.07
10.26
7.58
4.06
-0.10
-4.64
-9.37
-14.28
-19.56
-25.46
-32.22
-39.86
-48.12
-56.35
-63.46
-67.95
-68.24
-63.15
-52.49
-37.29
-19.66
-2.10
13.25
25.17
33.49
38.69
41.39
42.03
40.79
37.83
33.49
28.42
23.46
19.37
16.63
15.31
15.14
15.64
16.30
16.63
16.26
14.92
12.42
8.73
4.04
-1.37
-7.09
-12.81
-18.41
-23.99
-29.87
-36.43
-44.00
-52.59
-61.66
-69.98
-75.83
-77.29
-72.93
-62.34
-46.42
-27.19
-7.23
11.07
26.07
37.11
44.30
48.26
49.65
49.09
47.06
44.08
40.63
37.22
34.21
31.77
29.89
28.47
27.41
26.63
26.10
25.66
25.06
23.90
21.75
18.32
13.55
7.71
1.27
-5.20
-11.27
-16.77
-21.95
-27.38
-33.81
-41.80
-51.34
-61.55
-70.66
-76.43
-76.73
-70.39
-57.63
-40.07
-20.29
-0.92
16.03
29.61
39.74
46.88
51.53
54.05
54.63
53.51
51.11
48.04
45.00
42.55
40.94
40.11
39.71
39.32
38.62
37.55
36.23
34.89
33.57
32.01
29.71
26.10
20.91
14.29
6.83
-0.70
-7.58
-13.44
-18.33
-22.65
-27.03
-32.14
-38.54
-46.47
-55.69
-65.32
-73.81
-79.23
-79.71
-74.04
-62.12
-45.17
-25.42
-5.49
12.30
26.58
37.02
44.11
48.63
51.26
52.29
51.78
49.81
46.69
43.02
39.56
36.95
35.56
35.31
35.84
36.60
37.09
37.01
36.26
34.94
33.22
31.09
28.43
24.92
20.30
14.51
7.80
0.67
-6.29
-12.62
-18.13
-22.93
-27.32
-31.71
-36.53
-42.15
-48.89
-56.77
-65.36
-73.57
-79.72
-81.88
-78.49
-69.01
-54.22
-36.10
-17.21
0.11
14.37
25.07
32.45
36.99
39.04
38.77
36.41
32.48
27.88
23.67
20.71
19.35
19.40
20.24
21.20
21.85
22.08
22.03
21.88
21.60
20.91
19.36
16.49
12.12
6.46
0.10
-6.23
-11.90
-16.62
-20.59
-24.37
-28.72
-34.31
-41.51
-50.16
-59.46
-68.00
-73.97
-75.56
-71.55
-61.69
-46.95
-29.25
-10.92
5.97
20.09
30.95
38.73
43.86
46.72
47.57
46.60
44.16
40.82
37.36
34.52
32.76
32.12
32.21
32.45
32.31
31.51
30.14
28.47
26.79
25.21
23.56
21.50
18.61
14.59
9.31
2.93
-4.16
-11.46
-18.41
-24.59
-29.84
-34.28
-38.31
-42.54
-47.64
-54.23
-62.62
-72.45
-82.50
-90.73
-94.75
-92.54
-83.21
-67.44
-47.33
-25.72
-5.36
11.77
24.80
33.81
39.56
42.97
44.83
45.66
45.70
45.07
43.94
42.61
41.45
40.70
40.32
40.01
39.41
38.32
36.87
35.41
34.27
33.53
32.86
31.71
29.54
26.00
21.06
15.00
8.25
1.27
-5.44
-11.56
-16.90
-21.53
-25.79
-30.22
-35.48
-42.21
-50.68
-60.53
-70.57
-78.89
-83.29
-81.92
-73.97
-60.03
-41.92
-22.16
-3.18
13.27
26.37
36.07
42.73
46.84
48.80
49.00
47.83
45.76
43.27
40.81
38.65
36.92
35.62
34.71
34.18
33.96
33.98
34.05
33.90
33.23
31.86
29.73
26.88
23.34
19.07
13.99
8.10
1.57
-5.17
-11.60
-17.30
-22.12
-26.27
-30.18
-34.39
-39.32
-45.31
-52.52
-60.88
-69.87
-78.38
-84.69
-86.85
-83.24
-73.28
-57.76
-38.74
-18.98
-1.11
13.16
23.30
29.72
33.30
34.83
34.77
33.34
30.80
27.63
24.51
22.06
20.56
19.91
19.72
19.62
19.47
19.40
19.57
20.03
20.53
20.55
19.48
16.78
12.23
5.99
-1.28
-8.71
-15.37
-20.70
-24.76
-28.19
-32.02
-37.24
-44.34
-53.14
-62.56
-70.85
-75.92
-75.89
-69.60
-57.16
-39.93
-20.28
-0.81
16.32
29.87
39.54
45.61
48.55
48.82
46.87
43.31
38.99
34.91
31.92
30.44
30.35
31.12
32.01
32.43
32.05
30.94
29.36
27.64
25.93
24.11
21.76
18.38
13.60
7.41
0.14
-7.56
-15.04
-21.82
-27.74
-33.01
-38.14
-43.79
-50.54
-58.68
-67.84
-76.88
-83.98
-87.03
-84.37
-75.34
-60.64
-42.11
-22.17
-3.07
13.62
27.22
37.71
45.39
50.56
53.39
54.05
52.86
50.35
47.28
44.39
42.27
41.14
40.89
41.18
41.63
41.91
41.85
41.36
40.39
38.90
36.82
34.09
30.64
26.44
21.48
15.81
9.56
2.98
-3.62
-9.94
-15.76
-21.04
-25.94
-30.84
-36.27
-42.71
-50.46
-59.31
-68.41
-76.27
-80.99
-80.80
-74.60
-62.42
-45.46
-25.84
-6.07
11.70
26.08
36.63
43.70
47.98
50.18
50.78
50.09
48.40
46.14
43.84
42.06
41.13
41.05
41.57
42.29
42.87
43.11
42.95
42.35
41.23
39.47
36.89
33.44
29.19
24.38
19.30
14.21
9.19
4.16
-1.08
-6.67
-12.61
-18.64
-24.46
-29.79
-34.62
-39.23
-44.12
-49.90
-56.95
-65.15
-73.69
-81.06
-85.32
-84.64
-77.93
-65.31
-48.15
-28.73
-9.49
7.54
21.19
31.14
37.62
41.10
42.06
40.92
38.24
34.67
30.96
27.81
25.70
24.74
24.71
25.15
25.57
25.61
25.14
24.29
23.30
22.32
21.29
19.83
17.44
13.69
8.46
2.13
-4.63
-11.02
-16.50
-20.96
-24.75
-28.55
-33.05
-38.80
-45.95
-54.15
-62.55
-69.78
-74.20
-74.25
-68.94
-58.19
-43.07
-25.50
-7.78
8.14
21.07
30.72
37.40
41.62
43.71
43.81
42.09
38.91
35.03
31.35
28.64
27.22
26.88
27.06
27.15
26.74
25.82
24.62
23.42
22.34
21.19
19.51
16.73
12.42
6.52
-0.56
-8.06
-15.13
-21.21
-26.17
-30.44
-34.75
-39.87
-46.35
-54.31
-63.31
-72.29
-79.67
-83.64
-82.55
-75.54
-62.85
-45.91
-26.98
-8.45
7.79
20.76
30.41
37.19
41.66
44.20
44.94
44.01
41.74
38.81
36.03
34.12
33.34
33.44
33.81
33.80
33.04
31.58
29.75
27.98
26.45
25.00
23.23
20.62
16.80
11.69
5.56
-1.06
-7.55
-13.47
-18.68
-23.42
-28.22
-33.75
-40.55
-48.83
-58.26
-67.88
-76.16
-81.22
-81.39
-75.64
-64.06
-47.87
-29.14
-10.23
6.90
21.09
32.01
39.92
45.36
48.75
50.33
50.25
48.67
45.98
42.82
39.91
37.89
37.10
37.44
38.47
39.55
40.12
39.86
38.78
37.07
34.99
32.65
29.96
26.71
22.64
17.65
11.83
5.48
-1.04
-7.36
-13.25
-18.65
-23.69
-28.65
-33.90
-39.84
-46.78
-54.78
-63.42
-71.69
-78.00
-80.53
-77.76
-69.02
-54.89
-37.13
-18.19
-0.45
14.43
25.84
33.98
39.46
42.81
44.26
43.87
41.76
38.40
34.62
31.32
29.23
28.59
29.12
30.17
31.05
31.30
30.79
29.68
28.26
26.69
24.92
22.66
19.58
15.40
10.08
3.91
-2.60
-8.86
-14.41
-19.14
-23.36
-27.64
-32.70
-39.11
-47.02
-56.08
-65.37
-73.48
-78.76
-79.63
-75.05
-64.93
-50.19
-32.63
-14.42
2.44
16.61
27.47
35.02
39.53
41.36
40.83
38.36
34.51
30.08
25.94
22.85
21.25
21.11
22.01
23.30
24.37
24.79
24.50
23.61
22.30
20.56
18.20
14.88
10.36
4.66
-1.86
-8.63
-15.07
-20.77
-25.67
-30.05
-34.44
-39.51
-45.82
-53.73
-63.08
-73.04
-82.13
-88.36
-89.82
-85.19
-74.26
-58.10
-38.78
-18.78
-0.34
15.09
27.01
35.66
41.67
45.61
47.85
48.57
47.89
46.07
43.54
40.87
38.55
36.93
36.12
36.02
36.43
37.03
37.47
37.41
36.54
34.75
32.07
28.60
24.46
19.67
14.15
7.88
1.01
-6.11
-13.03
-19.38
-25.08
-30.30
-35.51
-41.21
-47.88
-55.84
-65.21
-75.71
-86.47
-95.96
-102.12
-102.87
-96.77
-83.59
-64.50
-41.85
-18.47
3.09
21.15
35.10
45.18
52.05
56.41
58.77
59.47
58.79
57.12
54.96
52.83
51.13
50.03
49.52
49.42
49.51
49.62
49.57
49.20
48.29
46.63
44.04
40.47
36.00
30.79
25.05
18.93
12.50
5.86
-0.91
-7.62
-14.08
-20.19
-26.01
-31.76
-37.83
-44.62
-52.43
-61.40
-71.30
-81.40
-90.35
-96.27
-97.14
-91.45
-78.81
-60.18
-37.77
-14.38
7.41
25.83
40.16
50.46
57.27
61.16
62.61
62.03
59.81
56.47
52.64
48.97
46.03
44.21
43.59
43.99
44.94
45.90
46.40
46.14
44.99
42.98
40.20
36.71
32.57
27.80
22.43
16.52
10.13
3.36
-3.66
-10.77
-17.77
-24.49
-30.79
-36.73
-42.53
-48.63
-55.56
-63.72
-73.03
-82.64
-90.89
-95.55
-94.50
-86.47
-71.59
-51.46
-28.69
-6.11
13.96
30.14
41.94
49.47
53.12
53.34
50.68
45.89
40.00
34.15
29.44
26.58
25.67
26.25
27.52
28.65
29.14
28.92
28.23
27.32
26.16
24.38
21.43
16.92
10.86
3.76
-3.61
-10.53
-16.64
-22.04
-27.21
-32.83
-39.54
-47.81
-57.62
-68.29
-78.43
-86.03
-88.93
-85.45
-75.00
-58.36
-37.56
-15.25
5.94
24.10
38.19
48.00
53.83
56.18
55.67
52.88
48.49
43.24
37.90
33.11
29.34
26.76
25.29
24.69
24.66
24.96
25.38
25.67
25.44
24.17
21.27
16.39
9.58
1.41
-7.15
-15.12
-21.90
-27.45
-32.31
-37.48
-43.97
-52.53
-63.24
-75.25
-86.77
-95.30
-98.28
-93.84
-81.54
-62.61
-39.58
-15.60
6.56
25.04
39.15
49.06
55.34
58.62
59.38
58.04
55.14
51.32
47.29
43.70
40.89
38.87
37.37
36.05
34.69
33.27
31.99
31.05
30.42
29.71
28.25
25.24
20.13
12.86
3.96
-5.64
-14.89
-23.04
-29.81
-35.56
-41.11
-47.50
-55.55
-65.45
-76.45
-86.77
-94.02
-95.80
-90.50
-77.88
-59.19
-36.78
-13.44
8.35
26.92
41.45
51.86
58.44
61.64
61.97
60.04
56.59
52.52
48.72
45.88
44.28
43.71
43.59
43.27
42.32
40.72
38.78
36.94
35.41
34.05
32.36
29.63
25.28
19.09
11.33
2.69
-5.92
-13.76
-20.46
-26.25
-31.80
-37.97
-45.48
-54.63
-65.08
-75.79
-85.13
-91.13
-91.89
-86.18
-73.79
-55.84
-34.49
-12.40
8.00
25.03
37.96
46.83
52.08
54.22
53.73
51.14
47.14
42.53
38.20
34.79
32.60
31.51
31.11
30.89
30.55
30.02
29.43
28.84
28.09
26.72
24.14
19.84
13.76
6.31
-1.65
-9.22
-15.81
-21.35
-26.31
-31.49
-37.69
-45.40
-54.59
-64.61
-74.12
-81.34
-84.34
-81.52
-72.22
-56.95
-37.45
-16.19
4.24
21.79
35.30
44.47
49.57
51.14
49.78
46.17
41.10
35.53
30.44
26.61
24.38
23.64
23.91
24.61
25.30
25.76
25.94
25.77
25.03
23.30
20.11
15.20
8.69
1.11
-6.72
-13.95
-20.05
-25.00
-29.37
-34.08
-40.17
-48.29
-58.38
-69.45
-79.63
-86.57
-88.02
-82.56
-70.08
-51.90
-30.43
-8.48
11.46
27.80
39.96
48.17
52.99
54.98
54.59
52.26
48.58
44.35
40.39
37.33
35.40
34.37
33.77
33.15
32.20
30.94
29.52
28.13
26.76
25.10
22.62
18.79
13.28
6.23
-1.76
-9.83
-17.19
-23.42
-28.69
-33.55
-38.82
-45.25
-53.33
-63.05
-73.67
-83.68
-90.93
-93.07
-88.34
-76.22
-57.83
-35.64
-12.74
8.14
25.28
38.18
47.21
53.11
56.44
57.50
56.49
53.71
49.73
45.41
41.58
38.83
37.33
36.81
36.78
36.73
36.35
35.56
34.48
33.21
31.76
29.91
27.22
23.26
17.78
10.88
3.05
-4.98
-12.49
-19.03
-24.59
-29.52
-34.45
-40.07
-46.93
-55.28
-64.89
-74.88
-83.68
-89.25
-89.59
-83.37
-70.54
-52.42
-31.39
-10.15
9.06
24.91
37.09
45.89
51.75
55.03
55.91
54.61
51.57
47.51
43.34
39.87
37.58
36.52
36.35
36.53
36.57
36.20
35.40
34.31
33.10
31.73
29.96
27.40
23.73
18.77
12.62
5.66
-1.58
-8.57
-14.90
-20.45
-25.39
-30.15
-35.27
-41.24
-48.34
-56.53
-65.28
-73.49
-79.61
-81.85
-78.72
-69.57
-54.89
-36.36
-16.39
2.63
18.90
31.49
40.26
45.45
47.36
46.34
42.88
37.73
31.98
26.78
23.01
21.07
20.72
21.34
22.20
22.81
22.98
22.81
22.43
21.81
20.65
18.51
15.04
10.19
4.26
-2.15
-8.41
-14.05
-18.96
-23.39
-27.86
-33.06
-39.63
-47.90
-57.67
-67.99
-77.16
-83.08
-83.79
-78.11
-66.11
-49.12
-29.41
-9.50
8.47
23.12
33.87
40.79
44.25
44.80
43.04
39.66
35.42
31.12
27.40
24.64
22.92
22.07
21.76
21.70
21.73
21.78
21.78
21.56
20.76
18.92
15.60
10.66
4.38
-2.58
-9.41
-15.42
-20.39
-24.62
-28.85
-33.99
-40.79
-49.53
-59.73
-70.07
-78.59
-83.03
-81.50
-73.10
-58.33
-39.05
-17.92
2.33
19.66
33.08
42.56
48.61
51.88
52.82
51.76
49.04
45.25
41.18
37.64
35.25
34.13
33.96
34.14
34.03
33.27
31.89
30.15
28.42
26.83
25.15
22.85
19.28
14.04
7.16
-0.75
-8.79
-16.04
-21.95
-26.55
-30.42
-34.48
-39.71
-46.77
-55.74
-65.95
-75.94
-83.64
-86.87
-83.89
-74.09
-58.23
-38.28
-16.88
3.44
20.82
34.40
44.11
50.42
53.94
55.21
54.65
52.68
49.73
46.36
43.22
40.84
39.53
39.26
39.67
40.23
40.47
40.10
39.11
37.58
35.62
33.24
30.29
26.60
22.01
16.44
10.01
3.01
-4.14
-10.97
-17.13
-22.50
-27.33
-32.11
-37.48
-43.97
-51.83
-60.88
-70.36
-78.91
-84.77
-86.05
-81.38
-70.34
-53.80
-33.71
-12.64
6.97
23.42
35.94
44.59
49.93
52.58
53.09
51.91
49.48
46.36
43.12
40.32
38.30
37.23
37.03
37.49
38.31
39.14
39.62
39.47
38.52
36.72
34.20
31.10
27.51
23.45
18.83
13.57
7.66
1.29
-5.25
-11.58
-17.40
-22.57
-27.17
-31.49
-35.95
-41.01
-47.06
-54.28
-62.53
-71.13
-78.83
-83.92
-84.59
-79.53
-68.41
-52.15
-32.74
-12.68
5.71
20.79
31.84
38.90
42.44
43.02
41.20
37.59
32.95
28.19
24.21
21.71
20.90
21.51
22.85
24.19
24.94
24.90
24.17
23.02
21.74
20.39
18.76
16.42
12.94
8.07
1.96
-4.85
-11.61
-17.65
-22.68
-26.92
-30.93
-35.46
-41.17
-48.33
-56.64
-65.19
-72.48
-76.68
-76.15
-69.90
-58.02
-41.79
-23.28
-4.76
11.91
25.57
35.82
42.65
46.25
46.85
44.81
40.76
35.65
30.58
26.56
24.14
23.30
23.52
24.04
24.19
23.71
22.73
21.60
20.61
19.72
18.49
16.30
12.59
7.23
0.60
-6.51
-13.27
-19.08
-23.86
-28.00
-32.25
-37.38
-44.03
-52.37
-62.04
-71.95
-80.44
-85.45
-85.15
-78.45
-65.46
-47.59
-27.20
-6.90
11.15
25.71
36.48
43.83
48.36
50.53
50.63
48.88
45.67
41.66
37.73
34.71
33.08
32.85
33.53
34.39
34.76
34.36
33.26
31.84
30.41
29.05
27.51
25.35
22.13
17.66
12.02
5.52
-1.44
-8.55
-15.60
-22.56
-29.54
-36.78
-44.65
-53.52
-63.56
-74.36
-84.81
-93.10
-97.13
-95.12
-86.27
-71.11
-51.42
-29.74
-8.64
9.97
25.10
36.64
45.02
50.72
54.09
55.33
54.59
52.23
48.85
45.17
41.92
39.53
38.08
37.34
36.90
36.38
35.58
34.45
33.10
31.63
30.05
28.24
25.93
22.81
18.59
13.16
6.67
-0.42
-7.50
-13.95
-19.44
-24.06
-28.28
-32.84
-38.47
-45.67
-54.43
-64.18
-73.71
-81.32
-85.10
-83.37
-75.27
-61.13
-42.48
-21.73
-1.43
16.34
30.45
40.70
47.56
51.59
53.24
52.78
50.42
46.61
42.08
37.77
34.45
32.55
31.99
32.32
32.96
33.43
33.53
33.23
32.58
31.62
30.25
28.31
25.60
21.94
17.24
11.57
5.17
-1.58
-8.21
-14.33
-19.74
-24.51
-28.95
-33.53
-38.80
-45.23
-53.04
-61.98
-71.16
-79.04
-83.70
-83.36
-76.93
-64.49
-47.36
-27.68
-7.88
9.97
24.53
35.21
42.02
45.30
45.53
43.33
39.39
34.52
29.52
25.09
21.69
19.50
18.40
18.17
18.49
19.11
19.82
20.43
20.72
20.39
19.07
16.42
12.24
6.61
-0.04
-6.99
-13.45
-18.87
-23.15
-26.82
-30.84
-36.25
-43.70
-53.03
-63.09
-71.98
-77.45
-77.65
-71.66
-59.75
-43.31
-24.38
-5.14
12.55
27.38
38.70
46.32
50.40
51.30
49.49
45.58
40.33
34.61
29.28
25.05
22.34
21.16
21.21
22.01
23.09
24.12
24.80
24.82
23.83
21.48
17.55
12.12
5.58
-1.47
-8.37
-14.64
-20.08
-24.87
-29.53
-34.83
-41.50
-49.99
-60.09
-70.69
-79.91
-85.46
-85.32
-78.46
-65.16
-47.03
-26.53
-6.27
11.73
26.35
37.38
45.15
50.18
52.84
53.40
52.09
49.34
45.79
42.18
39.12
36.89
35.39
34.29
33.23
32.05
30.83
29.74
28.88
28.07
26.84
24.60
20.85
15.47
8.76
1.39
-5.87
-12.44
-18.16
-23.33
-28.63
-34.83
-42.48
-51.59
-61.41
-70.48
-76.84
-78.58
-74.39
-64.02
-48.41
-29.48
-9.62
8.97
24.73
36.96
45.66
51.21
54.09
54.71
53.49
50.87
47.44
43.85
40.68
38.22
36.47
35.17
34.01
32.82
31.69
30.82
30.35
30.14
29.72
28.43
25.61
20.97
14.69
7.40
-0.01
-6.78
-12.48
-17.19
-21.44
-26.03
-31.79
-39.23
-48.32
-58.31
-67.72
-74.64
-77.15
-73.90
-64.56
-50.05
-32.19
-13.31
4.43
19.47
31.01
38.92
43.44
44.97
43.96
40.99
36.79
32.23
28.15
25.14
23.42
22.79
22.85
23.14
23.36
23.34
22.97
22.16
20.73
18.48
15.27
11.10
6.17
0.80
-4.55
-9.51
-13.90
-17.94
-22.19
-27.41
-34.24
-42.87
-52.73
-62.49
-70.27
-74.08
-72.39
-64.61
-51.34
-34.29
-15.80
1.84
16.93
28.63
36.90
42.07
44.59
44.78
42.91
39.42
35.04
30.64
27.04
24.74
23.76
23.72
24.06
24.31
24.22
23.78
23.12
22.25
21.00
18.94
15.60
10.68
4.30
-2.95
-10.24
-16.75
-22.06
-26.27
-30.02
-34.21
-39.72
-47.04
-56.03
-65.80
-74.71
-80.68
-81.71
-76.48
-64.86
-48.05
-28.26
-8.08
10.23
25.25
36.46
44.09
48.64
50.61
50.43
48.49
45.31
41.58
38.06
35.36
33.73
32.96
32.50
31.80
30.55
28.89
27.26
26.08
25.45
24.96
23.85
21.27
16.80
10.57
3.27
-4.16
-10.90
-16.58
-21.31
-25.66
-30.40
-36.25
-43.62
-52.45
-62.02
-71.05
-77.80
-80.44
-77.45
-68.29
-53.51
-34.87
-14.86
4.04
19.96
32.07
40.43
45.60
48.18
48.59
47.07
43.96
39.89
35.75
32.41
30.45
29.91
30.36
31.14
31.51
31.00
29.54
27.40
25.11
23.16
21.73
20.55
18.93
16.09
11.59
5.53
-1.50
-8.67
-15.24
-20.85
-25.58
-29.81
-34.15
-39.23
-45.59
-53.38
-62.14
-70.67
-77.23
-79.90
-77.15
-68.39
-54.14
-35.93
-15.96
3.48
20.47
33.81
43.09
48.66
51.18
51.42
50.01
47.44
44.09
40.45
37.10
34.62
33.31
33.10
33.50
33.87
33.64
32.59
30.90
28.94
27.06
25.35
23.53
21.09
17.51
12.54
6.36
-0.48
-7.24
-13.29
-18.37
-22.67
-26.70
-31.17
-36.65
-43.48
-51.62
-60.58
-69.39
-76.60
-80.49
-79.53
-72.83
-60.59
-44.15
-25.58
-7.14
9.34
22.78
32.73
39.19
42.34
42.44
39.91
35.46
30.08
24.87
20.80
18.42
17.79
18.47
19.82
21.18
22.11
22.45
22.23
21.56
20.40
18.56
15.84
12.09
7.40
2.07
-3.51
-9.00
-14.24
-19.34
-24.61
-30.46
-37.31
-45.41
-54.61
-64.22
-72.91
-78.89
-80.33
-75.92
-65.46
-49.97
-31.55
-12.66
4.61
18.97
30.06
38.11
43.47
46.34
46.80
44.98
41.35
36.69
31.97
28.00
25.25
23.73
23.17
23.15
23.33
23.51
23.64
23.67
23.49
22.74
20.91
17.51
12.29
5.48
-2.19
-9.77
-16.37
-21.55
-25.52
-29.04
-33.16
-38.89
-46.81
-56.78
-67.82
-78.09
-85.24
-87.00
-81.90
-69.85
-52.22
-31.50
-10.50
8.42
23.91
35.63
43.93
49.40
52.51
53.54
52.70
50.29
46.82
42.98
39.51
36.97
35.64
35.42
35.93
36.60
36.95
36.66
35.68
34.14
32.18
29.84
26.93
23.17
18.27
12.18
5.18
-2.18
-9.22
-15.38
-20.48
-24.74
-28.75
-33.25
-38.90
-46.13
-55.04
-65.25
-75.76
-84.96
-90.76
-91.15
-84.78
-71.61
-53.03
-31.56
-10.03
9.23
24.90
36.72
45.13
50.73
54.03
55.33
54.85
52.90
49.97
46.64
43.53
41.13
39.66
39.15
39.33
39.86
40.39
40.67
40.55
39.99
38.91
37.20
34.68
31.18
26.62
21.08
14.76
8.00
1.17
-5.38
-11.38
-16.74
-21.55
-26.06
-30.68
-35.90
-42.19
-49.88
-58.88
-68.48
-77.27
-83.25
-84.42
-79.37
-67.85
-50.99
-31.00
-10.51
8.15
23.45
34.78
42.32
46.61
48.23
47.69
45.42
41.90
37.72
33.64
30.32
28.19
27.33
27.40
27.89
28.34
28.49
28.38
28.17
27.90
27.40
26.20
23.74
19.62
13.84
6.91
-0.31
-6.90
-12.28
-16.37
-19.64
-22.84
-26.77
-31.97
-38.72
-46.91
-56.04
-65.14
-72.72
-76.97
-76.23
-69.54
-57.10
-40.30
-21.36
-2.71
13.67
26.57
35.54
40.75
42.67
41.91
39.11
34.96
30.18
25.45
21.36
18.28
16.34
15.40
15.19
15.43
15.91
16.55
17.25
17.72
17.53
16.13
13.12
8.50
2.69
-3.54
-9.46
-14.60
-18.98
-23.07
-27.57
-33.22
-40.41
-48.98
-58.05
-65.98
-70.75
-70.47
-64.04
-51.68
-34.93
-16.27
1.64
16.74
27.93
35.14
38.91
39.95
38.89
36.14
32.11
27.31
22.45
18.29
15.40
13.96
13.72
14.18
14.74
15.05
14.97
14.51
13.70
12.41
10.39
7.40
3.35
-1.60
-7.06
-12.57
-17.79
-22.60
-27.21
-32.14
-38.05
-45.47
-54.50
-64.47
-73.88
-80.63
-82.60
-78.34
-67.59
-51.50
-32.23
-12.33
5.96
21.24
32.96
41.26
46.57
49.34
49.98
48.85
46.45
43.38
40.24
37.51
35.40
33.88
32.75
31.86
31.15
30.64
30.35
30.14
29.70
28.58
26.33
22.61
17.35
10.80
3.50
-3.87
-10.65
-16.47
-21.36
-25.81
-30.65
-36.76
-44.70
-54.32
-64.62
-73.75
-79.49
-79.79
-73.56
-61.00
-43.65
-23.87
-4.20
13.36
27.69
38.46
45.89
50.34
52.18
51.78
49.62
46.37
42.78
39.57
37.19
35.76
35.11
34.90
34.71
34.33
33.71
33.06
32.56
32.18
31.51
29.87
26.52
21.11
13.96
5.94
-1.79
-8.32
-13.36
-17.31
-21.04
-25.57
-31.61
-39.46
-48.86
-58.95
-68.31
-75.10
-77.40
-73.79
-63.89
-48.53
-29.70
-9.94
8.41
23.71
35.28
43.17
47.79
49.59
48.95
46.22
41.91
36.79
31.79
27.74
25.14
23.97
23.79
23.99
24.08
23.87
23.41
22.83
22.10
20.95
18.93
15.62
10.86
4.91
-1.66
-8.17
-14.08
-19.24
-23.90
-28.62
-34.09
-40.83
-48.94
-57.92
-66.62
-73.32
-76.21
-73.80
-65.53
-52.00
-34.86
-16.35
1.30
16.44
28.21
36.41
41.28
43.18
42.53
39.80
35.57
30.60
25.65
21.43
18.41
16.77
16.43
17.08
18.31
19.67
20.73
21.07
20.32
18.19
14.57
9.59
3.65
-2.65
-8.66
-13.97
-18.52
-22.71
-27.25
-32.93
-40.31
-49.34
-59.17
-68.15
-74.17
-75.20
-69.96
-58.44
-41.93
-22.70
-3.34
14.01
28.02
38.29
45.05
48.82
50.10
49.35
47.01
43.60
39.71
35.98
32.91
30.80
29.64
29.14
28.90
28.54
27.90
27.04
26.10
25.13
23.86
21.76
18.21
12.87
5.90
-2.01
-9.90
-16.94
-22.73
-27.46
-31.80
-36.63
-42.79
-50.76
-60.37
-70.68
-79.96
-86.04
-86.85
-81.08
-68.78
-51.30
-30.98
-10.42
8.24
23.73
35.58
43.92
49.09
51.47
51.48
49.59
46.46
42.91
39.71
37.47
36.43
36.37
36.74
36.90
36.38
35.06
33.22
31.29
29.59
28.12
26.54
24.24
20.73
15.81
9.70
2.96
-3.79
-10.03
-15.60
-20.62
-25.55
-30.96
-37.35
-44.97
-53.58
-62.33
-69.77
-74.10
-73.67
-67.53
-55.76
-39.56
-20.89
-1.95
15.42
30.00
41.26
49.16
53.88
55.72
55.03
52.28
48.15
43.45
39.06
35.74
33.96
33.71
34.58
35.83
36.73
36.78
35.84
34.14
31.98
29.59
27.01
24.08
20.56
16.28
11.21
5.48
-0.66
-6.85
-12.78
-18.20
-23.09
-27.66
-32.31
-37.56
-43.83
-51.31
-59.72
-68.24
-75.53
-79.85
-79.53
-73.54
-61.84
-45.59
-26.84
-7.90
9.26
23.34
33.79
40.58
43.89
44.04
41.47
36.81
30.98
25.01
19.89
16.35
14.68
14.65
15.70
17.08
18.18
18.68
18.62
18.20
17.58
16.60
14.87
11.95
7.65
2.22
-3.77
-9.64
-14.96
-19.67
-24.12
-28.86
-34.47
-41.35
-49.55
-58.61
-67.49
-74.63
-78.22
-76.72
-69.36
-56.57
-39.80
-21.23
-3.09
12.87
25.65
35.02
41.18
44.52
45.37
44.04
40.90
36.55
31.76
27.33
23.90
21.74
20.77
20.68
21.11
21.71
22.24
22.44
22.02
20.64
17.94
13.70
7.99
1.16
-6.16
-13.19
-19.32
-24.28
-28.33
-32.23
-37.01
-43.54
-52.15
-62.25
-72.35
-80.25
-83.63
-80.72
-70.96
-55.22
-35.67
-15.09
3.94
19.66
31.44
39.46
44.31
46.60
46.72
45.08
42.20
38.81
35.68
33.37
31.98
31.22
30.58
29.65
28.30
26.72
25.23
24.12
23.43
22.83
21.72
19.44
15.48
9.78
2.76
-4.77
-11.94
-18.16
-23.34
-27.90
-32.57
-38.16
-45.16
-53.61
-62.86
-71.56
-77.87
-79.86
-76.08
-66.12
-50.82
-32.08
-12.29
6.33
22.24
34.77
43.86
49.79
52.92
53.55
52.03
48.90
44.93
41.05
38.09
36.55
36.36
37.02
37.73
37.83
37.06
35.57
33.78
32.07
30.50
28.85
26.68
23.55
19.20
13.70
7.33
0.56
-6.07
-12.22
-17.77
-22.99
-28.47
-34.84
-42.56
-51.58
-61.17
-69.94
-76.12
-78.00
-74.39
-65.05
-50.80
-33.35
-14.84
2.79
18.11
30.36
39.32
45.00
47.54
47.19
44.47
40.16
35.28
30.83
27.48
25.50
24.73
24.77
25.19
25.67
26.03
26.16
25.90
25.02
23.20
20.18
15.84
10.39
4.32
-1.70
-7.13
-11.66
-15.48
-19.12
-23.34
-28.83
-36.00
-44.75
-54.32
-63.31
-69.85
-72.08
-68.68
-59.33
-44.96
-27.45
-9.15
7.78
21.85
32.36
39.30
43.03
44.01
42.68
39.51
35.08
30.08
25.28
21.34
18.68
17.36
17.10
17.45
18.02
18.61
19.16
19.61
19.70
18.94
16.70
12.53
6.43
-1.03
-8.90
-16.12
-21.98
-26.34
-29.77
-33.29
-38.00
-44.69
-53.42
-63.32
-72.68
-79.29
-81.07
-76.67
-65.92
-49.96
-30.90
-11.21
6.90
21.98
33.41
41.27
45.95
47.92
47.61
45.50
42.20
38.51
35.26
33.04
32.05
32.02
32.41
32.63
32.30
31.36
30.01
28.52
27.08
25.62
23.83
21.23
17.38
12.10
5.59
-1.59
-8.74
-15.24
-20.86
-25.79
-30.55
-35.78
-42.09
-49.76
-58.58
-67.69
-75.56
-80.28
-79.99
-73.58
-61.18
-44.20
-24.95
-5.93
10.89
24.46
34.60
41.67
46.12
48.28
48.39
46.72
43.76
40.28
37.12
34.98
34.14
34.35
35.00
35.44
35.24
34.38
33.13
31.80
30.53
29.11
27.11
24.08
19.81
14.35
8.08
1.54
-4.80
-10.65
-16.00
-21.08
-26.29
-32.06
-38.70
-46.24
-54.33
-62.11
-68.21
-71.06
-69.21
-61.92
-49.55
-33.54
-16.05
0.74
15.26
26.83
35.49
41.57
45.30
46.68
45.68
42.58
38.11
33.35
29.35
26.77
25.69
25.68
26.13
26.47
26.47
26.13
25.59
24.90
23.90
22.26
19.65
15.82
10.89
5.24
-0.57
-6.05
-10.95
-15.36
-19.63
-24.26
-29.71
-36.34
-44.21
-53.01
-61.83
-69.21
-73.38
-72.74
-66.42
-54.69
-38.98
-21.44
-4.35
10.56
22.30
30.65
35.86
38.35
38.50
36.68
33.31
29.00
24.55
20.75
18.21
17.11
17.19
17.86
18.58
19.01
19.11
19.04
18.83
18.29
16.92
14.18
9.79
3.90
-2.86
-9.67
-15.76
-20.77
-24.80
-28.37
-32.26
-37.20
-43.71
-51.81
-60.88
-69.50
-75.74
-77.60
-73.63
-63.53
-48.34
-30.17
-11.50
5.55
19.74
30.71
38.63
43.83
46.52
46.85
45.09
41.80
37.82
34.04
31.17
29.51
28.96
29.08
29.36
29.37
28.93
28.12
27.15
26.22
25.29
24.01
21.80
18.15
12.82
6.04
-1.54
-9.11
-15.96
-21.73
-26.49
-30.68
-34.97
-40.06
-46.52
-54.54
-63.72
-72.96
-80.51
-84.36
-82.75
-74.81
-60.92
-42.69
-22.52
-2.95
14.07
27.48
37.18
43.71
47.74
49.79
50.08
48.76
46.11
42.73
39.42
36.96
35.74
35.64
36.08
36.39
36.11
35.20
33.95
32.71
31.64
30.53
28.90
26.21
22.13
16.64
10.08
3.00
-4.01
-10.50
-16.25
-21.23
-25.65
-29.82
-34.22
-39.38
-45.75
-53.47
-62.07
-70.30
-76.30
-77.97
-73.77
-63.28
-47.50
-28.55
-9.08
8.62
23.11
33.94
41.39
46.01
48.29
48.57
47.12
44.32
40.81
37.36
34.66
33.08
32.56
32.66
32.80
32.52
31.71
30.53
29.30
28.25
27.34
26.26
24.48
21.52
17.09
11.25
4.45
-2.66
-9.37
-15.17
-19.94
-23.97
-27.85
-32.27
-37.82
-44.74
-52.84
-61.34
-68.96
-74.04
-74.97
-70.65
-60.88
-46.54
-29.37
-11.46
5.27
19.51
30.62
38.48
43.27
45.30
44.92
42.61
38.97
34.76
30.80
27.72
25.88
25.19
25.25
25.45
25.30
24.60
23.47
22.19
20.91
19.49
17.52
14.54
10.25
4.76
-1.46
-7.75
-13.58
-18.69
-23.21
-27.59
-32.41
-38.22
-45.31
-53.58
-62.37
-70.48
-76.21
-77.83
-74.03
-64.41
-49.78
-31.95
-13.22
4.26
19.05
30.57
38.84
44.12
46.63
46.51
44.03
39.84
34.91
30.33
26.97
25.14
24.68
25.02
25.58
25.94
25.98
25.74
25.31
24.65
23.52
21.55
18.39
13.90
8.33
2.23
-3.68
-8.86
-13.15
-16.88
-20.73
-25.44
-31.59
-39.40
-48.51
-58.00
-66.36
-71.74
-72.42
-67.33
-56.49
-41.10
-23.23
-5.17
11.15
24.54
34.56
41.23
44.79
45.60
44.06
40.76
36.41
31.74
27.37
23.73
21.00
19.19
18.22
17.92
18.14
18.68
19.29
19.66
19.41
18.15
15.54
11.45
6.05
-0.16
-6.47
-12.24
-17.13
-21.30
-25.32
-29.94
-35.78
-43.05
-51.38
-59.77
-66.76
-70.67
-70.06
-64.10
-52.87
-37.48
-19.84
-2.22
13.38
25.59
33.93
38.58
40.09
39.07
36.04
31.47
25.95
20.23
15.16
11.50
9.63
9.47
10.52
12.10
13.50
14.19
13.86
12.40
9.88
6.47
2.42
-2.07
-6.87
-11.96
-17.39
-23.23
-29.62
-36.72
-44.70
-53.48
-62.50
-70.53
-75.78
-76.38
-71.07
-59.73
-43.61
-24.91
-6.14
10.59
23.98
33.61
39.66
42.61
42.99
41.26
37.84
33.18
27.87
22.60
18.13
15.06
13.70
13.89
15.06
16.39
17.05
16.45
14.39
11.00
6.69
1.86
-3.16
-8.21
-13.34
-18.80
-25.00
-32.38
-41.21
-51.37
-62.09
-71.92
-78.88
-81.02
-76.89
-66.12
-49.64
-29.44
-8.17
11.62
28.03
40.15
48.02
52.38
54.16
54.15
52.84
50.50
47.33
43.64
39.81
36.21
33.10
30.62
28.83
27.76
27.33
27.27
27.10
26.17
23.88
19.92
14.34
7.54
0.12
-7.35
-14.51
-21.27
-27.91
-34.91
-42.84
-51.99
-61.99
-71.57
-78.72
-81.15
-77.10
-66.03
-48.99
-28.25
-6.69
13.18
29.74
42.44
51.52
57.51
60.88
61.91
60.89
58.29
54.88
51.51
48.88
47.22
46.33
45.66
44.72
43.29
41.52
39.75
38.27
37.05
35.66
33.44
29.73
24.24
17.14
9.09
0.98
-6.44
-12.77
-18.16
-23.20
-28.76
-35.65
-44.34
-54.73
-65.93
-76.32
-83.77
-86.11
-81.82
-70.56
-53.43
-32.69
-11.09
8.88
25.60
38.46
47.59
53.47
56.54
57.15
55.59
52.32
47.99
43.48
39.62
36.96
35.66
35.39
35.58
35.67
35.33
34.54
33.48
32.18
30.41
27.66
23.45
17.61
10.48
2.83
-4.45
-10.75
-15.92
-20.34
-24.71
-29.84
-36.40
-44.68
-54.39
-64.51
-73.36
-78.85
-79.09
-72.93
-60.50
-43.21
-23.45
-3.92
13.15
26.42
35.58
41.02
43.49
43.66
41.99
38.84
34.70
30.23
26.23
23.34
21.79
21.36
21.54
21.80
21.89
21.80
21.61
21.24
20.35
18.36
14.83
9.61
3.03
-4.19
-11.24
-17.53
-22.91
-27.76
-32.74
-38.63
-45.98
-54.76
-64.21
-72.85
-78.68
-79.71
-74.56
-63.02
-46.22
-26.36
-6.08
12.31
27.37
38.66
46.39
51.04
53.02
52.61
50.22
46.48
42.30
38.62
36.11
34.90
34.64
34.64
34.29
33.26
31.61
29.62
27.59
25.63
23.53
20.87
17.19
12.22
6.00
-1.10
-8.48
-15.58
-22.04
-27.83
-33.23
-38.74
-44.91
-52.21
-60.78
-70.24
-79.54
-86.93
-90.35
-88.01
-79.02
-63.84
-44.26
-22.90
-2.41
15.29
29.29
39.68
47.02
51.93
54.73
55.52
54.44
51.80
48.31
44.80
42.03
40.43
39.94
40.16
40.59
40.79
40.55
39.83
38.62
36.91
34.63
31.71
28.08
23.73
18.72
13.11
7.05
0.74
-5.63
-11.89
-17.96
-23.84
-29.60
-35.38
-41.39
-47.93
-55.33
-63.66
-72.53
-80.78
-86.62
-88.09
-83.70
-73.01
-56.91
-37.37
-16.81
2.53
19.09
32.16
41.68
48.01
51.61
52.88
52.21
50.03
46.93
43.56
40.64
38.70
37.93
38.22
39.14
40.13
40.66
40.33
38.96
36.63
33.61
30.20
26.69
23.13
19.43
15.41
10.93
5.98
0.65
-5.00
-10.94
-17.08
-23.29
-29.31
-34.87
-39.95
-44.90
-50.34
-56.88
-64.65
-72.94
-80.27
-84.69
-84.33
-78.06
-65.87
-48.95
-29.36
-9.52
8.48
23.24
34.23
41.59
45.71
46.97
45.73
42.41
37.72
32.64
28.30
25.54
24.70
25.51
27.26
29.07
30.16
30.08
28.77
26.51
23.74
20.91
18.21
15.51
12.45
8.65
3.94
-1.48
-7.28
-13.05
-18.59
-23.87
-28.97
-34.00
-39.09
-44.49
-50.52
-57.42
-64.97
-72.22
-77.59
-79.23
-75.62
-66.18
-51.54
-33.36
-13.86
4.78
20.84
33.40
42.20
47.52
49.79
49.51
47.18
43.41
38.92
34.54
31.05
28.95
28.31
28.81
29.89
30.97
31.52
31.20
29.88
27.70
24.92
21.89
18.87
15.82
12.47
8.44
3.49
-2.35
-8.79
-15.45
-21.94
-28.01
-33.60
-38.70
-43.50
-48.37
-53.86
-60.47
-68.32
-76.78
-84.45
-89.35
-89.49
-83.54
-71.28
-53.77
-33.09
-11.76
7.93
24.35
36.79
45.28
50.29
52.43
52.31
50.54
47.77
44.72
42.03
40.09
39.02
38.66
38.73
39.00
39.26
39.35
39.14
38.48
37.25
35.47
33.21
30.53
27.48
23.96
19.85
15.05
9.51
3.26
-3.54
-10.60
-17.58
-24.07
-29.84
-34.85
-39.41
-44.05
-49.40
-55.99
-64.02
-73.08
-82.03
-89.04
-91.98
-89.03
-79.31
-63.38
-43.16
-21.38
-0.78
16.67
30.00
39.26
45.01
48.01
48.88
48.19
46.46
44.27
42.18
40.62
39.77
39.53
39.57
39.51
39.20
38.71
38.33
38.35
38.81
39.36
39.37
38.16
35.33
30.93
25.45
19.57
13.96
8.97
4.57
0.45
-3.82
-8.56
-13.84
-19.44
-24.91
-29.78
-33.84
-37.21
-40.39
-44.15
-49.24
-56.12
-64.73
-74.33
-83.46
-90.10
-92.10
-87.82
-76.69
-59.54
-38.49
-16.30
4.35
21.61
34.67
43.66
49.21
52.03
52.67
51.56
49.07
45.64
41.82
38.18
35.22
33.24
32.31
32.25
32.72
33.34
33.76
33.77
33.23
32.04
30.17
27.61
24.42
20.69
16.56
12.08
7.26
2.08
-3.41
-9.04
-14.57
-19.77
-24.55
-29.04
-33.56
-38.54
-44.40
-51.34
-59.24
-67.43
-74.70
-79.40
-79.82
-74.75
-63.92
-48.22
-29.56
-10.25
7.55
22.34
33.48
41.01
45.35
47.01
46.41
43.93
40.03
35.32
30.59
26.65
24.09
23.12
23.48
24.55
25.64
26.23
26.12
25.38
24.26
22.91
21.28
19.13
16.12
12.02
6.82
0.82
-5.41
-11.29
-16.44
-20.83
-24.81
-28.96
-33.87
-39.94
-47.31
-55.76
-64.65
-72.89
-78.97
-81.20
-78.19
-69.33
-55.17
-37.40
-18.34
-0.27
15.18
27.23
35.90
41.51
44.41
44.86
43.10
39.55
34.96
30.29
26.46
24.08
23.26
23.57
24.34
24.89
24.86
24.30
23.48
22.71
22.02
21.10
19.39
16.39
11.90
6.15
-0.25
-6.62
-12.44
-17.60
-22.34
-27.13
-32.45
-38.66
-45.97
-54.30
-63.23
-71.87
-78.81
-82.31
-80.80
-73.41
-60.40
-43.22
-24.10
-5.39
11.04
24.17
33.72
39.89
43.04
43.56
41.87
38.54
34.31
30.00
26.30
23.60
21.98
21.28
21.20
21.49
21.97
22.55
23.15
23.59
23.54
22.57
20.29
16.51
11.38
5.42
-0.66
-6.21
-10.91
-14.89
-18.70
-23.09
-28.72
-35.89
-44.31
-52.98
-60.23
-64.17
-63.09
-56.13
-43.62
-27.12
-8.98
8.37
23.03
34.02
41.25
45.20
46.45
45.49
42.63
38.18
32.55
26.43
20.62
15.92
12.87
11.58
11.76
12.80
14.05
14.97
15.22
14.69
13.32
11.08
7.93
3.85
-1.09
-6.78
-13.02
-19.74
-26.96
-34.78
-43.27
-52.15
-60.64
-67.41
-70.84
-69.43
-62.46
-50.22
-34.17
-16.46
0.65
15.40
26.92
35.08
40.23
42.77
42.89
40.63
36.09
29.69
22.35
15.31
9.79
6.68
6.16
7.73
10.37
12.88
14.30
14.11
12.30
9.20
5.24
0.83
-3.88
-8.84
-14.22
-20.27
-27.35
-35.76
-45.57
-56.28
-66.63
-74.73
-78.38
-75.84
-66.47
-51.03
-31.56
-10.79
8.68
25.03
37.51
46.25
51.78
54.57
54.83
52.62
48.15
42.05
35.42
29.51
25.38
23.41
23.25
24.00
24.61
24.26
22.63
19.88
16.40
12.60
8.69
4.64
0.23
-4.80
-10.69
-17.63
-25.74
-34.99
-45.01
-54.89
-63.12
-67.78
-67.09
-60.03
-46.83
-29.06
-9.19
10.12
26.71
39.38
47.90
52.75
54.65
54.27
52.10
48.47
43.76
38.50
33.42
29.23
26.44
25.07
24.73
24.70
24.22
22.83
20.47
17.43
14.09
10.70
7.24
3.39
-1.29
-7.17
-14.48
-23.19
-33.07
-43.61
-53.98
-62.90
-68.74
-69.80
-64.88
-53.77
-37.56
-18.47
0.81
17.89
31.29
40.70
46.63
49.95
51.33
51.06
49.16
45.66
40.87
35.47
30.35
26.31
23.81
22.83
22.90
23.31
23.35
22.46
20.34
16.97
12.46
7.08
1.14
-5.03
-11.17
-17.13
-22.98
-29.06
-35.85
-43.76
-52.73
-61.93
-69.75
-74.09
-72.99
-65.38
-51.55
-33.09
-12.49
7.66
25.32
39.38
49.55
56.10
59.42
59.91
58.00
54.26
49.53
44.77
40.87
38.30
37.06
36.67
36.49
36.00
35.01
33.61
32.06
30.47
28.74
26.47
23.19
18.53
12.45
5.28
-2.38
-9.83
-16.57
-22.47
-27.79
-33.11
-39.11
-46.37
-55.13
-65.04
-75.03
-83.34
-87.81
-86.54
-78.49
-63.98
-44.71
-23.20
-2.10
16.54
31.63
42.95
50.78
55.63
57.97
58.21
56.81
54.31
51.27
48.25
45.65
43.66
42.30
41.44
40.94
40.73
40.77
41.01
41.23
41.03
39.86
37.27
33.05
27.48
21.19
14.97
9.42
4.79
0.80
-3.12
-7.63
-13.12
-19.59
-26.60
-33.48
-39.55
-44.50
-48.50
-52.23
-56.61
-62.54
-70.37
-79.75
-89.39
-97.25
-101.04
-98.77
-89.43
-73.36
-52.33
-29.04
-6.41
13.15
28.32
38.90
45.47
48.95
50.19
49.81
48.31
46.19
44.04
42.38
41.57
41.57
42.05
42.56
42.71
42.40
41.78
41.14
40.73
40.60
40.48
39.89
38.29
35.27
30.74
25.01
18.64
12.32
6.61
1.75
-2.37
-6.13
-10.07
-14.62
-19.99
-26.03
-32.33
-38.42
-43.94
-48.79
-53.16
-57.50
-62.31
-68.12
-75.24
-83.53
-92.20
-99.68
-103.85
-102.60
-94.57
-79.76
-59.60
-36.69
-13.88
6.43
22.84
34.98
43.21
48.19
50.60
50.97
49.80
47.55
44.76
41.90
39.43
37.67
36.79
36.81
37.57
38.84
40.32
41.73
42.77
43.23
42.96
41.85
39.86
37.00
33.31
28.94
24.12
19.14
14.27
9.69
5.37
1.12
-3.39
-8.47
-14.29
-20.75
-27.55
-34.17
-40.15
-45.17
-49.24
-52.77
-56.45
-61.11
-67.45
-75.68
-85.35
-95.20
-103.29
-107.39
-105.54
-96.64
-80.86
-59.75
-35.83
-11.95
9.48
26.94
39.94
48.73
53.99
56.37
56.48
54.82
51.92
48.38
44.80
41.74
39.61
38.58
38.65
39.66
41.31
43.24
45.14
46.69
47.69
47.97
47.33
45.54
42.44
38.00
32.53
26.61
20.92
16.01
12.02
8.60
5.07
0.76
-4.76
-11.42
-18.79
-26.20
-33.00
-38.78
-43.48
-47.43
-51.26
-55.77
-61.71
-69.57
-79.20
-89.67
-99.23
-105.60
-106.50
-100.31
-86.68
-66.72
-42.75
-17.73
5.57
25.13
40.00
50.11
55.97
58.27
57.68
54.86
50.46
45.26
40.07
35.63
32.45
30.68
30.15
30.54
31.50
32.82
34.36
35.95
37.32
38.01
37.53
35.55
32.06
27.43
22.22
17.03
12.16
7.60
3.03
-1.94
-7.60
-13.94
-20.67
-27.31
-33.44
-38.87
-43.74
-48.53
-53.95
-60.65
-68.96
-78.60
-88.47
-96.73
-101.12
-99.57
-90.89
-75.21
-54.04
-29.89
-5.53
16.61
34.96
48.85
58.29
63.67
65.52
64.38
60.86
55.62
49.44
43.15
37.50
33.07
30.19
28.97
29.26
30.73
32.94
35.36
37.45
38.68
38.61
36.97
33.70
29.03
23.46
17.60
11.95
6.69
1.61
-3.75
-9.81
-16.73
-24.26
-31.87
-39.06
-45.53
-51.44
-57.28
-63.73
-71.39
-80.46
-90.42
-99.91
-106.81
-108.70
-103.59
-90.65
-70.65
-45.78
-19.07
6.43
28.40
45.54
57.53
64.70
67.75
67.43
64.53
59.80
54.00
47.98
42.58
38.50
36.16
35.55
36.27
37.60
38.81
39.41
39.19
38.23
36.74
34.90
32.68
29.92
26.31
21.55
15.48
8.22
0.20
-7.95
-15.58
-22.29
-28.10
-33.43
-38.94
-45.37
-53.23
-62.69
-73.37
-84.23
-93.58
-99.27
-99.15
-91.76
-76.89
-55.83
-31.07
-5.69
17.54
36.72
51.07
60.69
66.20
68.29
67.57
64.57
59.82
54.01
47.96
42.48
38.26
35.67
34.66
34.86
35.69
36.55
37.03
36.96
36.39
35.37
33.87
31.67
28.39
23.74
17.61
10.24
2.16
-5.95
-13.51
-20.18
-25.99
-31.32
-36.77
-42.97
-50.49
-59.56
-69.94
-80.75
-90.39
-96.75
-97.71
-91.69
-78.29
-58.53
-34.68
-9.66
13.73
33.44
48.49
58.76
64.72
66.97
66.11
62.72
57.51
51.35
45.22
40.00
36.25
34.12
33.36
33.46
33.91
34.31
34.44
34.23
33.67
32.73
31.29
29.08
25.78
21.09
14.92
7.49
-0.72
-9.03
-16.82
-23.74
-29.78
-35.23
-40.64
-46.60
-53.66
-62.16
-71.94
-82.16
-91.24
-96.98
-97.21
-90.40
-76.31
-56.16
-32.31
-7.65
15.14
34.22
48.68
58.47
64.05
66.03
65.00
61.54
56.27
49.98
43.62
38.12
34.20
32.14
31.72
32.32
33.15
33.58
33.31
32.41
31.13
29.66
27.99
25.80
22.58
17.91
11.67
4.16
-3.99
-11.98
-19.18
-25.35
-30.67
-35.63
-40.90
-47.08
-54.58
-63.43
-73.17
-82.71
-90.29
-93.77
-91.18
-81.35
-64.52
-42.40
-17.79
6.22
27.08
43.37
54.80
61.83
65.21
65.59
63.44
59.28
53.75
47.73
42.17
37.82
35.07
33.88
33.87
34.53
35.38
36.04
36.25
35.85
34.74
32.88
30.22
26.75
22.42
17.20
11.08
4.18
-3.22
-10.70
-17.82
-24.23
-29.90
-35.05
-40.16
-45.79
-52.41
-60.25
-69.18
-78.57
-87.13
-93.08
-94.41
-89.51
-77.69
-59.63
-37.26
-13.35
9.30
28.51
43.02
52.53
57.30
57.96
55.24
49.97
43.19
36.04
29.72
25.10
22.58
21.91
22.44
23.34
24.02
24.35
24.49
24.72
25.06
25.16
24.36
21.98
17.65
11.48
4.06
-3.74
-11.09
-17.50
-22.93
-27.91
-33.29
-39.95
-48.47
-58.75
-69.82
-79.87
-86.56
-87.63
-81.62
-68.40
-49.31
-26.84
-3.88
17.02
34.28
47.25
55.99
60.80
62.01
59.91
55.00
48.16
40.58
33.55
28.03
24.48
22.71
22.18
22.26
22.47
22.68
22.90
23.19
23.34
22.90
21.25
17.82
12.37
5.14
-3.17
-11.65
-19.46
-26.17
-31.87
-37.15
-42.93
-50.09
-59.17
-70.01
-81.62
-92.21
-99.46
-101.10
-95.55
-82.49
-63.02
-39.51
-14.87
8.15
27.60
42.56
52.99
59.39
62.35
62.45
60.22
56.28
51.38
46.41
42.17
39.20
37.59
37.05
37.06
37.08
36.74
35.97
34.86
33.54
32.03
30.06
27.23
23.06
17.34
10.19
2.15
-5.99
-13.50
-19.98
-25.50
-30.68
-36.39
-43.52
-52.64
-63.74
-76.01
-87.80
-96.84
-100.65
-97.29
-86.01
-67.56
-44.15
-18.82
5.38
26.10
42.12
53.26
60.07
63.46
64.33
63.45
61.36
58.42
54.93
51.21
47.64
44.63
42.50
41.40
41.25
41.82
42.82
43.90
44.66
44.61
43.29
40.36
35.82
30.02
23.50
16.83
10.34
4.09
-2.03
-8.18
-14.44
-20.73
-26.98
-33.08
-39.05
-45.05
-51.39
-58.52
-66.89
-76.67
-87.38
-97.70
-105.53
-108.41
-104.30
-92.29
-73.06
-48.78
-22.54
2.53
24.00
40.60
52.19
59.35
62.96
63.84
62.62
59.83
55.99
51.71
47.63
44.31
42.13
41.21
41.40
42.34
43.59
44.73
45.41
45.41
44.62
42.93
40.29
36.62
31.94
26.33
19.99
13.20
6.22
-0.76
-7.58
-14.18
-20.47
-26.36
-31.82
-36.93
-41.99
-47.54
-54.23
-62.52
-72.26
-82.35
-90.75
-94.92
-92.59
-82.61
-65.46
-43.15
-18.67
4.93
25.29
41.11
52.09
58.57
61.18
60.55
57.29
52.07
45.68
39.02
33.00
28.35
25.49
24.42
24.75
25.90
27.28
28.46
29.21
29.45
29.10
27.97
25.76
22.16
17.00
10.38
2.73
-5.34
-13.13
-20.13
-26.11
-31.19
-35.81
-40.59
-46.19
-53.13
-61.57
-71.11
-80.65
-88.50
-92.68
-91.42
-83.71
-69.71
-50.75
-29.06
-7.12
12.91
29.55
42.08
50.37
54.58
55.07
52.29
46.99
40.13
32.90
26.45
21.68
18.98
18.21
18.83
20.10
21.38
22.25
22.60
22.42
21.66
20.09
17.32
13.03
7.22
0.28
-7.05
-14.05
-20.28
-25.77
-31.08
-36.98
-44.23
-53.24
-63.85
-75.18
-85.63
-93.00
-94.99
-89.90
-77.22
-58.02
-34.73
-10.43
11.99
30.63
44.75
54.53
60.54
63.31
63.15
60.30
55.24
48.83
42.23
36.57
32.63
30.56
29.98
30.19
30.53
30.57
30.25
29.69
28.99
28.07
26.51
23.74
19.24
12.82
4.78
-4.15
-13.02
-21.00
-27.69
-33.21
-38.24
-43.71
-50.55
-59.33
-69.94
-81.37
-91.77
-98.73
-99.88
-93.66
-79.82
-59.62
-35.53
-10.50
12.76
32.35
47.36
57.68
63.73
66.11
65.47
62.55
58.16
53.18
48.40
44.45
41.62
39.83
38.76
38.02
37.27
36.33
35.15
33.76
32.17
30.31
27.95
24.79
20.50
14.88
8.01
0.32
-7.53
-14.89
-21.39
-27.14
-32.68
-38.74
-45.98
-54.70
-64.62
-74.89
-84.04
-90.19
-91.36
-86.05
-73.81
-55.56
-33.42
-10.21
11.45
29.75
43.89
53.91
60.19
63.11
62.97
60.19
55.39
49.55
43.76
38.95
35.63
33.80
33.13
33.09
33.24
33.30
33.20
32.98
32.58
31.85
30.42
27.86
23.81
18.16
11.18
3.47
-4.23
-11.24
-17.24
-22.33
-27.01
-32.04
-38.16
-45.91
-55.35
-65.90
-76.25
-84.52
-88.54
-86.48
-77.43
-61.76
-41.22
-18.44
3.75
22.96
37.77
47.75
53.23
54.91
53.56
49.89
44.58
38.39
32.18
26.85
23.03
21.00
20.53
21.08
21.98
22.78
23.30
23.55
23.53
23.00
21.49
18.48
13.69
7.30
0.01
-7.26
-13.72
-19.02
-23.43
-27.61
-32.43
-38.57
-46.34
-55.43
-64.90
-73.17
-78.29
-78.37
-72.16
-59.56
-41.81
-21.23
-0.60
17.67
32.00
41.87
47.52
49.61
48.82
45.75
40.95
35.05
28.80
23.00
18.34
15.26
13.81
13.69
14.41
15.44
16.30
16.65
16.20
14.76
12.15
8.37
3.55
-2.02
-7.95
-13.95
-19.87
-25.78
-31.98
-38.85
-46.73
-55.58
-64.76
-72.89
-78.03
-78.11
-71.73
-58.75
-40.50
-19.44
1.50
19.86
34.13
43.86
49.42
51.50
50.80
47.87
43.25
37.56
31.55
26.06
21.74
18.94
17.65
17.56
18.22
19.18
20.00
20.25
19.47
17.25
13.39
8.03
1.64
-5.08
-11.51
-17.31
-22.58
-27.82
-33.72
-40.89
-49.58
-59.42
-69.35
-77.66
-82.25
-81.26
-73.59
-59.40
-40.24
-18.64
2.56
20.98
35.23
44.97
50.69
53.23
53.40
51.83
49.04
45.51
41.72
38.16
35.16
32.84
31.16
29.98
29.15
28.55
28.11
27.63
26.85
25.35
22.76
18.82
13.51
7.16
0.31
-6.45
-12.70
-18.40
-23.90
-29.85
-36.95
-45.51
-55.13
-64.64
-72.13
-75.51
-73.08
-64.15
-49.37
-30.57
-10.26
9.11
25.73
38.71
47.93
53.67
56.34
56.27
53.84
49.65
44.54
39.52
35.45
32.81
31.55
31.26
31.34
31.39
31.24
30.89
30.40
29.59
28.13
25.61
21.69
16.35
9.90
2.88
-4.04
-10.29
-15.60
-20.08
-24.28
-29.02
-35.09
-42.93
-52.34
-62.33
-71.23
-77.08
-78.07
-73.09
-62.09
-46.21
-27.54
-8.60
8.36
21.93
31.64
37.89
41.31
42.46
41.61
38.93
34.77
29.88
25.21
21.62
19.54
18.88
19.17
19.90
20.71
21.50
22.25
22.88
23.06
22.25
19.85
15.43
9.02
1.19
-7.02
-14.41
-20.10
-23.93
-26.52
-29.10
-33.05
-39.26
-47.85
-58.01
-68.11
-76.03
-79.72
-77.57
-68.99
-54.60
-36.15
-16.09
3.06
19.44
32.02
40.67
45.74
47.70
46.94
43.89
39.13
33.60
28.38
24.44
22.33
21.98
22.81
24.03
24.99
25.39
25.30
24.94
24.43
23.63
22.11
19.36
15.00
8.97
1.58
-6.52
-14.51
-21.67
-27.56
-32.21
-36.15
-40.33
-45.80
-53.22
-62.52
-72.56
-81.36
-86.52
-86.04
-78.92
-65.58
-47.63
-27.40
-7.30
10.82
25.88
37.51
45.83
51.11
53.64
53.74
51.87
48.65
44.89
41.39
38.72
37.17
36.58
36.58
36.65
36.36
35.48
34.08
32.42
30.77
29.23
27.60
25.35
21.88
16.80
10.14
2.40
-5.66
-13.30
-20.08
-25.98
-31.34
-36.74
-42.81
-50.02
-58.47
-67.62
-76.16
-82.17
-83.67
-79.19
-68.43
-52.35
-32.98
-12.70
6.33
22.63
35.52
44.90
50.99
54.10
54.54
52.68
49.12
44.68
40.27
36.78
34.75
34.22
34.78
35.70
36.28
36.11
35.11
33.49
31.56
29.49
27.25
24.63
21.31
17.06
11.85
5.84
-0.55
-6.83
-12.62
-17.74
-22.32
-26.76
-31.63
-37.52
-44.81
-53.46
-62.88
-71.79
-78.37
-80.70
-77.31
-67.67
-52.55
-33.82
-13.90
4.90
20.92
33.30
41.92
47.02
49.01
48.29
45.38
40.94
35.82
30.96
27.16
24.93
24.34
25.07
26.50
27.99
29.03
29.40
29.13
28.39
27.27
25.67
23.27
19.72
14.86
8.82
2.09
-4.67
-10.88
-16.24
-20.89
-25.33
-30.24
-36.24
-43.65
-52.38
-61.79
-70.68
-77.47
-80.42
-78.10
-69.88
-56.23
-38.68
-19.50
-1.00
14.96
27.37
35.98
41.01
42.90
42.06
38.92
34.09
28.33
22.58
17.72
14.35
12.66
12.44
13.22
14.43
15.63
16.53
17.02
17.00
16.28
14.56
11.51
7.03
1.34
-4.92
-10.98
-16.21
-20.47
-24.17
-28.19
-33.48
-40.66
-49.76
-59.91
-69.50
-76.46
-78.72
-74.86
-64.59
-48.92
-29.93
-10.17
8.06
23.23
34.69
42.54
47.17
49.02
48.43
45.76
41.57
36.65
31.90
28.15
25.81
24.81
24.69
24.82
24.74
24.29
23.63
22.96
22.31
21.35
19.51
16.19
11.11
4.47
-3.09
-10.71
-17.63
-23.50
-28.38
-32.85
-37.72
-43.85
-51.84
-61.63
-72.33
-82.13
-88.71
-89.82
-84.06
-71.37
-53.11
-31.72
-9.92
9.93
26.32
38.68
47.11
52.09
54.16
53.81
51.54
47.93
43.72
39.69
36.51
34.51
33.63
33.48
33.53
33.36
32.86
32.19
31.58
31.07
30.39
28.96
26.14
21.48
15.00
7.18
-1.14
-9.06
-15.95
-21.61
-26.37
-30.99
-36.36
-43.23
-51.95
-62.14
-72.67
-81.72
-87.16
-87.09
-80.41
-67.26
-49.09
-28.21
-7.20
11.79
27.49
39.47
47.92
53.24
55.74
55.65
53.25
49.08
44.00
39.05
35.25
33.21
33.02
34.19
35.92
37.39
38.05
37.75
36.64
34.98
32.95
30.48
27.35
23.28
18.14
12.03
5.32
-1.56
-8.16
-14.24
-19.77
-24.99
-30.27
-36.11
-42.95
-51.06
-60.35
-70.16
-79.20
-85.65
-87.51
-83.30
-72.56
-56.15
-36.06
-14.82
5.26
22.59
36.43
46.65
53.38
56.76
56.94
54.29
49.54
43.80
38.34
34.18
31.91
31.46
32.28
33.60
34.73
35.30
35.31
34.95
34.36
33.47
31.92
29.25
25.07
19.40
12.63
5.42
-1.51
-7.66
-12.89
-17.49
-22.01
-27.16
-33.54
-41.46
-50.73
-60.51
-69.39
-75.64
-77.57
-74.07
-64.93
-50.89
-33.57
-14.96
2.98
18.71
31.31
40.38
45.92
48.15
47.35
43.94
38.57
32.09
25.54
19.91
15.91
13.77
13.28
13.89
15.01
16.14
16.96
17.24
16.70
15.04
11.96
7.35
1.48
-5.09
-11.59
-17.40
-22.25
-26.42
-30.62
-35.79
-42.68
-51.52
-61.75
-72.00
-80.26
-84.35
-82.49
-73.89
-59.13
-39.98
-18.98
1.26
18.71
32.24
41.55
46.96
49.00
48.28
45.36
40.91
35.66
30.40
25.85
22.44
20.31
19.27
18.96
19.01
19.15
19.22
19.07
18.50
17.13
14.59
10.60
5.17
-1.33
-8.34
-15.29
-21.85
-28.01
-34.14
-40.79
-48.48
-57.41
-67.16
-76.47
-83.41
-85.80
-81.95
-71.26
-54.61
-34.12
-12.51
7.68
24.74
37.93
47.24
53.06
55.80
55.89
53.75
50.03
45.55
41.16
37.55
35.05
33.60
32.87
32.46
32.08
31.65
31.21
30.75
30.05
28.63
25.92
21.49
15.35
7.93
-0.00
-7.66
-14.55
-20.66
-26.43
-32.59
-39.93
-48.94
-59.58
-70.95
-81.27
-88.20
-89.39
-83.35
-69.99
-50.88
-28.69
-6.42
13.45
29.50
41.39
49.49
54.44
56.79
56.92
55.16
51.96
47.93
43.81
40.25
37.68
36.11
35.26
34.76
34.39
34.18
34.27
34.68
35.09
34.76
32.83
28.68
22.26
14.18
5.46
-2.85
-10.03
-15.90
-20.86
-25.69
-31.30
-38.47
-47.48
-57.87
-68.35
-76.90
-81.22
-79.44
-70.68
-55.45
-35.62
-13.89
7.00
24.87
38.55
47.78
52.93
54.64
53.60
50.48
46.04
41.15
36.65
33.17
30.99
29.97
29.66
29.59
29.40
28.98
28.43
27.86
27.30
26.59
25.35
23.06
19.34
14.04
7.44
0.16
-7.04
-13.54
-19.10
-24.03
-28.96
-34.67
-41.70
-50.07
-59.05
-67.23
-72.73
-73.73
-69.06
-58.62
-43.49
-25.65
-7.36
9.43
23.46
34.14
41.34
45.11
45.66
43.30
38.68
32.75
26.62
21.29
17.48
15.43
14.94
15.61
16.92
18.43
19.77
20.62
20.68
19.66
17.30
13.52
8.50
2.64
-3.47
-9.30
-14.52
-19.19
-23.73
-28.76
-34.86
-42.35
-50.96
-59.74
-67.07
-70.98
-69.77
-62.54
-49.64
-32.71
-14.16
3.52
18.41
29.58
36.97
41.03
42.35
41.42
38.65
34.47
29.50
24.45
20.04
16.77
14.87
14.26
14.66
15.65
16.84
17.81
18.20
17.64
15.84
12.64
8.11
2.58
-3.44
-9.39
-14.90
-19.90
-24.66
-29.71
-35.64
-42.84
-51.17
-59.79
-67.17
-71.40
-70.71
-64.12
-51.85
-35.39
-16.98
0.99
16.64
28.94
37.66
43.00
45.41
45.30
43.12
39.45
35.05
30.72
27.20
24.91
23.84
23.63
23.77
23.79
23.52
22.96
22.14
21.00
19.25
16.47
12.44
7.27
1.37
-4.67
-10.36
-15.59
-20.60
-25.91
-32.12
-39.69
-48.68
-58.56
-68.09
-75.46
-78.68
-76.23
-67.59
-53.62
-36.29
-18.06
-1.14
13.03
23.97
31.93
37.46
41.00
42.75
42.68
40.82
37.44
33.19
29.00
25.82
24.31
24.63
26.44
29.16
32.18
35.02
37.32
38.77
38.93
37.33
33.60
27.73
20.16
11.73
3.45
-3.75
-9.43
-13.71
-17.30
-21.28
-26.75
-34.37
-44.03
-54.70
-64.55
-71.44
-73.43
-69.35
-59.20
-44.14
-26.23
-7.89
8.78
22.44
32.64
39.66
44.06
46.40
46.95
45.92
43.56
40.35
36.96
34.11
32.27
31.50
31.51
31.76
31.77
31.27
30.32
29.25
28.36
27.70
26.91
25.32
22.20
17.20
10.53
2.95
-4.57
-11.23
-16.66
-21.00
-24.73
-28.48
-32.86
-38.35
-45.16
-53.07
-61.21
-68.14
-72.07
-71.43
-65.36
-54.07
-38.80
-21.45
-4.15
11.35
23.83
32.80
38.29
40.69
40.55
38.47
35.08
31.04
27.12
24.00
22.16
21.73
22.39
23.50
24.38
24.56
23.94
22.73
21.25
19.69
18.01
15.89
12.93
8.87
3.74
-2.05
-7.88
-13.19
-17.75
-21.76
-25.81
-30.53
-36.38
-43.40
-51.17
-58.73
-64.83
-68.00
-66.98
-61.03
-50.31
-35.95
-19.82
-3.97
9.96
21.04
29.07
34.25
36.82
36.97
34.88
31.00
26.11
21.26
17.40
15.22
14.83
15.86
17.60
19.29
20.39
20.68
20.24
19.23
17.70
15.46
12.20
7.73
2.22
-3.78
-9.57
-14.55
-18.65
-22.25
-26.06
-30.82
-36.98
-44.60
-53.17
-61.62
-68.42
-71.87
-70.56
-63.84
-52.13
-36.88
-20.07
-3.74
10.61
22.20
30.85
36.81
40.48
42.19
42.27
41.02
38.78
36.00
33.19
30.82
29.24
28.51
28.45
28.75
29.05
29.10
28.76
27.97
26.66
24.73
22.08
18.64
14.36
9.27
3.53
-2.60
-8.71
-14.38
-19.32
-23.56
-27.47
-31.65
-36.72
-43.13
-50.94
-59.74
-68.62
-76.16
-80.67
-80.55
-74.76
-63.28
-47.24
-28.69
-9.95
6.97
20.86
31.40
38.86
43.76
46.57
47.59
47.04
45.24
42.60
39.67
37.00
34.94
33.71
33.26
33.43
34.02
34.80
35.52
35.88
35.55
34.24
31.84
28.43
24.27
19.73
15.07
10.42
5.79
1.12
-3.61
-8.40
-13.21
-18.02
-22.87
-27.88
-33.24
-39.17
-45.92
-53.61
-62.00
-70.30
-77.16
-80.89
-79.88
-73.19
-60.94
-44.40
-25.63
-6.93
9.77
23.28
33.24
39.92
43.85
45.60
45.64
44.36
42.17
39.51
36.86
34.58
32.93
31.96
31.68
32.02
32.88
34.11
35.38
36.28
36.34
35.26
32.94
29.56
25.42
20.89
16.27
11.67
7.11
2.47
-2.35
-7.41
-12.65
-17.90
-22.93
-27.54
-31.74
-35.75
-40.03
-45.15
-51.56
-59.30
-67.83
-75.86
-81.60
-83.15
-79.09
-69.06
-53.94
-35.70
-16.76
0.65
15.08
25.98
33.54
38.24
40.50
40.56
38.62
34.99
30.34
25.59
21.67
19.26
18.56
19.24
20.65
22.10
23.07
23.39
23.15
22.55
21.70
20.52
18.71
15.93
11.94
6.74
0.67
-5.77
-12.00
-17.62
-22.54
-26.98
-31.44
-36.50
-42.61
-49.95
-58.22
-66.53
-73.49
-77.37
-76.61
-70.26
-58.42
-42.26
-23.77
-5.22
11.42
24.93
34.87
41.41
44.98
46.05
45.01
42.26
38.34
33.96
29.92
26.94
25.43
25.38
26.34
27.57
28.39
28.34
27.37
25.74
23.79
21.65
19.17
15.97
11.69
6.25
-0.06
-6.71
-13.12
-18.97
-24.24
-29.25
-34.42
-40.24
-47.09
-55.19
-64.40
-74.04
-82.79
-88.89
-90.48
-86.21
-75.78
-60.02
-40.77
-20.32
-0.84
16.14
29.85
40.16
47.32
51.64
53.36
52.75
50.17
46.31
42.03
38.27
35.70
34.49
34.33
34.58
34.60
34.03
32.87
31.41
29.97
28.69
27.39
25.64
22.92
18.84
13.38
6.87
-0.10
-6.88
-13.01
-18.34
-23.08
-27.67
-32.67
-38.59
-45.82
-54.41
-63.95
-73.40
-81.13
-85.11
-83.52
-75.34
-60.85
-41.67
-20.37
0.32
18.28
32.39
42.58
49.41
53.57
55.53
55.49
53.61
50.23
46.02
41.87
38.57
36.63
36.09
36.61
37.63
38.63
39.21
39.20
38.60
37.42
35.66
33.14
29.62
24.88
18.90
12.03
4.90
-1.79
-7.57
-12.39
-16.67
-21.09
-26.32
-32.84
-40.78
-49.92
-59.58
-68.51
-75.04
-77.39
-74.17
-64.95
-50.53
-32.74
-13.86
3.98
19.35
31.57
40.49
46.31
49.28
49.68
47.83
44.22
39.49
34.41
29.74
26.06
23.67
22.49
22.16
22.28
22.58
22.97
23.43
23.88
23.97
23.19
20.98
17.05
11.54
4.98
-1.89
-8.29
-13.71
-18.07
-21.75
-25.51
-30.26
-36.73
-45.15
-54.99
-64.93
-73.09
-77.50
-76.53
-69.47
-56.72
-39.79
-20.94
-2.52
13.53
26.11
34.96
40.39
42.90
42.96
40.97
37.39
32.81
28.01
23.74
20.50
18.47
17.48
17.20
17.34
17.71
18.18
18.64
18.82
18.29
16.60
13.42
8.75
2.99
-3.20
-9.14
-14.33
-18.73
-22.76
-27.16
-32.75
-40.08
-49.09
-58.88
-67.78
-73.66
-74.57
-69.32
-58.02
-42.01
-23.48
-4.78
12.19
26.28
37.03
44.45
48.66
49.93
48.62
45.36
40.99
36.45
32.52
29.70
28.07
27.41
27.31
27.34
27.21
26.81
26.17
25.33
24.24
22.62
20.06
16.23
11.06
4.88
-1.70
-8.01
-13.65
-18.60
-23.23
-28.13
-33.94
-41.11
-49.72
-59.29
-68.66
-76.09
-79.63
-77.67
-69.51
-55.76
-38.10
-18.89
-0.42
15.67
28.56
38.15
44.73
48.63
50.10
49.34
46.68
42.72
38.30
34.34
31.53
30.14
29.97
30.49
31.08
31.32
31.11
30.59
29.95
29.22
28.17
26.32
23.23
18.65
12.72
5.96
-0.87
-7.12
-12.41
-16.83
-20.84
-25.11
-30.26
-36.68
-44.38
-52.94
-61.38
-68.29
-71.97
-70.86
-64.03
-51.66
-35.07
-16.47
1.74
17.65
30.21
39.30
45.32
48.76
49.91
48.90
45.98
41.66
36.79
32.38
29.22
27.63
27.41
28.03
28.81
29.25
29.16
28.57
27.67
26.56
25.20
23.36
20.76
17.14
12.49
7.04
1.20
-4.57
-9.97
-14.88
-19.39
-23.77
-28.30
-33.29
-39.03
-45.76
-53.42
-61.48
-68.84
-73.90
-74.95
-70.74
-60.91
-46.30
-28.70
-10.34
6.68
20.97
31.84
39.22
43.32
44.33
42.46
38.11
32.10
25.62
20.03
16.40
15.17
16.01
18.05
20.28
21.96
22.76
22.72
22.05
20.91
19.27
16.94
13.67
9.35
4.07
-1.75
-7.54
-12.76
-17.21
-21.12
-25.11
-29.92
-36.12
-43.77
-52.37
-60.91
-67.94
-71.91
-71.46
-65.81
-55.11
-40.46
-23.66
-6.73
8.61
21.33
31.02
37.70
41.58
42.85
41.77
38.81
34.55
29.74
25.10
21.20
18.34
16.59
15.81
15.76
16.21
16.93
17.76
18.44
18.52
17.46
14.73
10.13
3.91
-3.15
-10.11
-16.14
-20.86
-24.50
-27.78
-31.65
-37.03
-44.48
-53.86
-64.18
-73.64
-79.98
-81.10
-75.75
-63.99
-47.19
-27.66
-7.92
9.87
24.34
34.99
41.95
45.73
46.89
45.99
43.51
39.98
36.02
32.24
29.21
27.18
26.11
25.71
25.60
25.48
25.27
24.96
24.57
23.97
22.81
20.70
17.29
12.43
6.26
-0.75
-7.92
-14.61
-20.37
-25.22
-29.67
-34.52
-40.55
-48.15
-57.03
-66.08
-73.54
-77.38
-75.91
-68.31
-54.99
-37.56
-18.38
0.15
16.20
28.90
38.18
44.41
47.96
49.08
48.03
45.26
41.58
37.94
35.12
33.50
32.92
32.92
32.98
32.77
32.22
31.40
30.49
29.50
28.34
26.77
24.43
21.03
16.41
10.66
4.19
-2.45
-8.73
-14.32
-19.25
-23.95
-29.00
-35.04
-42.44
-51.04
-60.01
-67.85
-72.73
-72.95
-67.51
-56.51
-41.13
-23.35
-5.33
11.09
24.80
35.32
42.65
47.01
48.66
47.88
45.16
41.18
36.85
33.04
30.37
29.04
28.80
29.10
29.42
29.45
29.16
28.72
28.22
27.58
26.45
24.37
20.96
16.14
10.21
3.75
-2.53
-8.12
-12.83
-16.89
-20.88
-25.50
-31.35
-38.67
-47.17
-55.90
-63.36
-67.77
-67.57
-61.90
-50.94
-36.02
-19.20
-2.69
11.77
23.24
31.54
36.93
39.77
40.28
38.67
35.26
30.66
25.67
21.14
17.70
15.64
14.93
15.25
16.20
17.42
18.52
19.19
19.10
17.99
15.68
12.14
7.51
2.14
-3.52
-9.01
-14.03
-18.57
-22.97
-27.80
-33.67
-40.92
-49.32
-57.89
-64.95
-68.50
-66.80
-59.04
-45.74
-28.65
-10.21
7.15
21.75
32.80
40.30
44.56
45.97
44.86
41.69
37.15
32.17
27.69
24.38
22.49
21.82
21.91
22.23
22.38
22.16
21.55
20.57
19.22
17.34
14.66
10.89
5.98
0.18
-6.00
-12.00
-17.51
-22.56
-27.55
-33.03
-39.47
-47.03
-55.44
-63.88
-70.99
-75.10
-74.56
-68.38
-56.68
-40.74
-22.66
-4.75
11.19
24.18
34.01
40.94
45.30
47.37
47.35
45.50
42.27
38.28
34.27
30.88
28.56
27.38
27.12
27.39
27.78
28.03
28.07
27.79
26.97
25.21
22.10
17.43
11.46
4.80
-1.74
-7.49
-12.24
-16.22
-20.07
-24.66
-30.83
-39.03
-49.05
-59.81
-69.43
-75.64
-76.47
-70.88
-59.17
-42.91
-24.39
-6.03
10.26
23.39
33.10
39.67
43.66
45.58
45.84
44.71
42.54
39.74
36.90
34.56
33.03
32.30
32.05
31.76
31.10
29.98
28.58
27.23
26.12
25.09
23.70
21.28
17.26
11.53
4.52
-2.90
-9.73
-15.30
-19.49
-22.84
-26.27
-30.73
-36.89
-44.87
-54.13
-63.45
-71.07
-74.99
-73.55
-65.96
-52.71
-35.48
-16.71
1.20
16.45
28.10
35.99
40.40
41.80
40.76
37.96
34.24
30.42
27.26
25.22
24.40
24.55
25.11
25.49
25.25
24.29
22.86
21.48
20.53
20.06
19.65
18.57
16.11
11.95
6.21
-0.58
-7.65
-14.31
-20.14
-25.04
-29.34
-33.70
-38.87
-45.39
-53.22
-61.50
-68.69
-72.92
-72.49
-66.52
-55.14
-39.58
-21.78
-3.94
12.04
24.92
34.18
39.88
42.33
41.91
39.06
34.37
28.79
23.42
19.35
17.22
17.00
18.06
19.49
20.52
20.74
20.17
19.01
17.51
15.71
13.49
10.63
6.96
2.44
-2.77
-8.30
-13.71
-18.67
-23.11
-27.34
-31.97
-37.67
-44.85
-53.38
-62.33
-70.13
-74.85
-74.75
-68.83
-57.30
-41.53
-23.69
-6.10
9.47
22.11
31.75
38.81
43.72
46.67
47.63
46.63
43.97
40.35
36.65
33.72
32.07
31.71
32.29
33.24
34.02
34.29
33.88
32.78
31.02
28.65
25.72
22.31
18.46
14.21
9.46
4.14
-1.76
-8.05
-14.38
-20.38
-25.79
-30.66
-35.32
-40.30
-46.11
-53.13
-61.40
-70.49
-79.38
-86.47
-89.87
-87.87
-79.62
-65.46
-46.99
-26.63
-6.85
10.45
24.30
34.59
41.67
46.03
48.12
48.32
47.09
44.99
42.63
40.55
39.11
38.41
38.35
38.75
39.43
40.26
41.14
41.91
42.33
42.11
40.91
38.54
35.01
30.56
25.63
20.68
16.05
11.80
7.72
3.40
-1.52
-7.22
-13.55
-20.03
-26.14
-31.51
-36.08
-40.22
-44.59
-49.90
-56.64
-64.85
-73.92
-82.54
-88.87
-90.89
-86.99
-76.53
-60.19
-39.89
-18.25
2.11
19.28
32.41
41.53
47.25
50.30
51.28
50.64
48.86
46.44
44.00
42.09
41.05
40.91
41.44
42.28
43.11
43.74
44.17
44.44
44.62
44.58
44.04
42.58
39.88
35.84
30.75
25.22
19.89
15.23
11.23
7.47
3.35
-1.61
-7.47
-13.87
-20.17
-25.82
-30.57
-34.62
-38.52
-42.95
-48.51
-55.52
-63.81
-72.62
-80.59
-85.94
-86.89
-82.14
-71.38
-55.47
-36.33
-16.39
2.00
17.19
28.41
35.75
39.79
41.24
40.73
38.71
35.56
31.68
27.64
24.08
21.64
20.70
21.27
22.99
25.22
27.26
28.58
28.94
28.35
26.97
24.93
22.26
18.86
14.70
9.82
4.48
-0.97
-6.18
-10.92
-15.13
-18.98
-22.71
-26.63
-31.02
-36.15
-42.27
-49.50
-57.72
-66.25
-73.91
-79.00
-79.79
-75.03
-64.41
-48.86
-30.29
-11.12
6.44
20.87
31.65
38.98
43.47
45.69
45.98
44.48
41.40
37.21
32.66
28.68
26.04
25.14
25.86
27.71
29.97
31.93
33.13
33.28
32.38
30.56
27.95
24.66
20.71
16.09
10.78
4.88
-1.41
-7.81
-14.00
-19.74
-24.98
-29.83
-34.63
-39.81
-45.84
-53.01
-61.32
-70.32
-79.01
-85.86
-89.11
-87.19
-79.25
-65.54
-47.48
-27.27
-7.29
10.52
25.07
36.03
43.66
48.33
50.43
50.32
48.42
45.31
41.69
38.29
35.62
34.01
33.44
33.73
34.52
35.41
36.05
36.16
35.63
34.51
32.88
30.84
28.33
25.20
21.20
16.17
10.15
3.43
-3.56
-10.34
-16.62
-22.32
-27.57
-32.68
-38.02
-44.00
-50.97
-59.04
-67.88
-76.52
-83.30
-86.24
-83.58
-74.53
-59.59
-40.54
-19.93
-0.27
16.64
29.93
39.59
46.07
49.90
51.50
51.18
49.32
46.40
43.05
39.87
37.34
35.70
34.95
34.95
35.51
36.40
37.37
38.11
38.26
37.55
35.84
33.18
29.79
25.95
21.86
17.57
12.99
8.01
2.53
-3.40
-9.62
-15.89
-21.96
-27.63
-32.87
-37.87
-43.05
-48.99
-56.07
-64.28
-72.88
-80.38
-84.86
-84.45
-77.97
-65.41
-47.99
-27.83
-7.42
11.05
26.12
37.21
44.45
48.35
49.50
48.41
45.53
41.33
36.49
31.81
28.12
26.03
25.72
26.84
28.71
30.49
31.50
31.48
30.51
28.88
26.96
24.90
22.61
19.80
16.14
11.45
5.82
-0.41
-6.75
-12.76
-18.18
-23.02
-27.47
-31.88
-36.65
-42.17
-48.80
-56.66
-65.34
-73.75
-80.14
-82.49
-79.13
-69.49
-54.30
-35.49
-15.52
3.33
19.50
32.26
41.48
47.26
49.74
49.14
45.88
40.74
34.85
29.40
25.35
23.18
22.85
23.84
25.46
27.03
28.08
28.42
28.08
27.17
25.80
23.89
21.20
17.45
12.46
6.31
-0.60
-7.66
-14.25
-20.00
-24.91
-29.34
-33.95
-39.43
-46.33
-54.82
-64.45
-74.08
-81.93
-86.02
-84.67
-77.09
-63.69
-45.98
-26.16
-6.46
11.33
26.15
37.63
45.83
50.97
53.30
53.08
50.68
46.68
41.88
37.20
33.48
31.24
30.54
31.03
32.09
33.06
33.49
33.20
32.24
30.77
28.91
26.67
23.88
20.31
15.71
10.05
3.53
-3.37
-10.11
-16.27
-21.76
-26.88
-32.09
-37.94
-44.78
-52.65
-61.21
-69.64
-76.62
-80.53
-79.72
-73.13
-60.74
-43.72
-24.17
-4.51
13.23
27.83
38.89
46.61
51.39
53.56
53.41
51.27
47.68
43.39
39.25
36.01
34.12
33.57
33.95
34.64
35.07
34.90
34.15
33.06
31.91
30.78
29.46
27.56
24.63
20.39
14.93
8.63
2.05
-4.22
-9.89
-14.95
-19.69
-24.60
-30.17
-36.75
-44.49
-53.14
-62.00
-69.83
-75.01
-75.88
-71.27
-60.95
-45.85
-27.80
-9.07
8.31
22.93
34.13
41.83
46.30
47.94
47.21
44.64
40.86
36.54
32.40
28.96
26.54
25.19
24.70
24.77
25.09
25.49
25.89
26.21
26.27
25.67
23.95
20.69
15.84
9.73
3.07
-3.35
-8.96
-13.57
-17.48
-21.31
-25.86
-31.76
-39.33
-48.30
-57.74
-66.06
-71.34
-71.80
-66.41
-55.31
-39.84
-22.20
-4.80
10.43
22.44
30.99
36.40
39.15
39.59
37.97
34.58
29.90
24.65
19.64
15.58
12.83
11.47
11.29
11.99
13.23
14.68
15.86
16.28
15.41
12.97
8.96
3.75
-2.08
-7.94
-13.46
-18.50
-23.28
-28.19
-33.79
-40.50
-48.44
-57.07
-65.10
-70.65
-71.71
-66.89
-55.92
-39.89
-20.97
-1.82
15.20
28.52
37.56
42.53
44.09
43.02
40.01
35.69
30.72
25.78
21.60
18.71
17.33
17.29
18.11
19.23
20.11
20.35
19.68
17.92
14.96
10.88
5.90
0.42
-5.18
-10.60
-15.80
-20.95
-26.40
-32.59
-39.87
-48.35
-57.66
-66.77
-74.03
-77.51
-75.57
-67.46
-53.71
-36.02
-16.80
1.54
17.21
29.32
37.77
42.99
45.57
46.08
44.98
42.72
39.80
36.74
33.99
31.85
30.37
29.38
28.63
27.93
27.19
26.43
25.68
24.78
23.44
21.24
17.82
13.06
7.17
0.69
-5.78
-11.77
-17.15
-22.22
-27.64
-34.14
-42.18
-51.61
-61.48
-70.09
-75.36
-75.44
-69.28
-57.11
-40.37
-21.34
-2.51
14.15
27.55
37.47
44.33
48.69
50.97
51.39
50.08
47.31
43.66
