1629047101.00
64.000000
-0.00
-0.00
-0.00
-0.00
-0.00
-0.00
-0.00
-0.00
-0.00
-0.00
0.00
0.01
0.01
-0.00
-0.03
-0.05
-0.05
0.00
0.13
0.36
0.66
1.01
1.37
1.72
2.06
2.40
2.79
3.24
3.80
4.42
5.06
5.66
6.20
6.68
7.15
7.68
8.31
9.14
10.09
11.04
11.88
12.56
13.14
13.76
14.65
15.96
17.91
20.32
22.90
25.38
27.58
29.57
31.68
34.32
37.81
42.54
48.15
54.10
59.83
64.97
69.58
74.14
79.34
85.71
93.76
103.00
112.62
121.73
129.77
136.75
143.30
150.75
157.77
166.64
177.95
191.79
206.97
220.57
228.25
225.36
208.53
176.87
132.76
80.05
23.07
-34.94
-92.44
-149.16
-205.23
-260.37
-313.74
-363.87
-409.83
-450.91
-486.50
-515.74
-537.23
-549.22
-549.96
-538.37
-514.21
-478.67
-433.88
-382.45
-327.02
-269.84
-212.63
-156.66
-102.95
-52.37
-5.90
35.58
71.43
101.35
125.50
144.38
158.69
169.15
176.37
180.75
182.57
182.07
179.51
175.23
169.65
163.18
156.15
148.81
141.30
133.69
126.02
118.33
110.69
103.16
95.80
88.68
81.83
75.25
68.95
62.95
57.25
51.86
46.78
42.03
37.59
33.45
29.61
26.07
22.81
19.83
17.11
14.67
12.48
10.53
8.83
7.35
6.08
5.00
4.07
3.27
2.58
1.98
1.46
1.04
0.72
0.49
0.32
0.19
0.06
-0.07
-0.20
-0.32
-0.40
-0.44
-0.44
-0.41
-0.41
-0.48
-0.62
-0.83
-1.03
-1.17
-1.20
-1.12
-0.99
-0.92
-1.02
-1.33
-1.80
-2.30
-2.67
-2.81
-2.70
-2.50
-2.42
-2.68
-3.36
-4.35
-5.39
-6.17
-6.46
-6.28
-5.88
-5.68
-6.03
-7.09
-8.64
-10.26
-11.43
-11.87
-11.60
-10.98
-10.52
-10.64
-11.52
-13.16
-15.45
-18.10
-20.49
-21.66
-20.41
-15.81
-7.72
2.89
14.17
24.12
31.37
35.66
37.63
38.28
38.21
37.44
35.57
32.34
28.12
23.89
20.95
20.26
22.08
25.63
29.55
32.30
32.73
30.40
25.70
19.56
12.98
6.65
0.71
-5.05
-10.79
-16.33
-20.96
-23.74
-23.99
-21.60
-17.27
-12.22
-7.66
-4.48
-2.93
-2.72
-3.37
-4.41
-5.55
-6.81
-8.29
-9.99
-11.83
-13.53
-14.78
-15.35
-15.25
-14.63
-13.86
-13.28
-12.99
-12.94
-12.96
-12.90
-12.63
-12.06
-11.27
-10.37
-9.64
-9.25
-9.54
-10.70
-12.81
-15.59
-18.43
-20.42
-20.62
-18.24
-12.83
-4.59
5.60
16.47
26.70
35.31
41.89
46.59
48.73
48.26
45.33
40.26
33.54
25.90
18.21
11.41
6.23
3.07
2.17
3.33
6.06
9.69
13.51
16.92
19.50
20.95
21.07
19.82
17.18
13.21
8.07
2.12
-4.26
-10.71
-16.96
-22.82
-28.04
-32.48
-36.09
-39.00
-41.47
-43.89
-46.67
-50.15
-54.50
-59.55
-64.77
-69.11
-71.18
-69.58
-63.35
-52.35
-37.37
-19.97
-1.92
15.14
29.99
41.89
50.46
55.57
57.33
56.07
52.38
47.05
41.04
35.36
30.92
28.40
28.11
29.90
33.16
36.99
40.44
42.78
43.67
43.12
41.36
38.66
35.09
30.59
25.11
18.70
11.68
4.58
-2.04
-7.79
-12.60
-16.71
-20.49
-24.35
-28.52
-33.02
-37.72
-42.45
-46.98
-51.16
-54.91
-58.33
-61.70
-65.51
-70.39
-76.84
-84.95
-94.12
-102.99
-109.53
-111.58
-107.36
-96.09
-78.28
-55.69
-30.90
-6.63
14.90
32.36
45.32
54.04
59.08
61.08
60.77
58.91
56.36
53.93
52.31
51.87
52.64
54.44
56.89
59.59
62.12
64.16
65.46
65.90
65.40
63.89
61.24
57.31
52.08
45.75
38.84
32.00
25.86
20.68
16.36
12.46
8.51
4.22
-0.36
-4.86
-8.87
-12.13
-14.74
-17.10
-19.80
-23.33
-27.91
-33.41
-39.41
-45.35
-50.78
-55.49
-59.58
-63.56
-68.13
-73.96
-81.35
-89.87
-98.27
-104.61
-106.72
-102.77
-91.87
-74.42
-52.03
-27.19
-2.58
19.51
37.59
51.07
59.99
64.79
66.01
64.33
60.56
55.77
51.15
47.78
46.42
47.25
49.94
53.86
58.22
62.37
65.82
68.26
69.51
69.48
68.17
65.61
61.90
57.19
51.72
45.81
39.76
33.86
28.30
23.21
18.69
14.81
11.59
8.92
6.60
4.30
1.76
-1.08
-4.08
-6.91
-9.33
-11.31
-13.19
-15.46
-18.59
-22.76
-27.72
-32.93
-37.84
-42.11
-45.79
-49.31
-53.23
-58.00
-63.91
-70.98
-78.97
-87.24
-94.72
-99.83
-100.77
-96.03
-84.96
-68.11
-47.17
-24.51
-2.47
17.15
33.35
45.73
54.26
59.08
60.36
58.49
54.16
48.36
42.32
37.26
34.14
33.47
35.18
38.68
43.06
47.41
50.99
53.42
54.61
54.56
53.29
50.77
46.95
41.94
36.00
29.54
23.02
16.86
11.30
6.40
2.01
-2.09
-6.17
-10.34
-14.62
-18.80
-22.62
-25.86
-28.49
-30.70
-32.89
-35.57
-39.24
-44.32
-50.94
-58.89
-67.46
-75.43
-81.19
-83.11
-79.97
-71.32
-57.69
-40.48
-21.59
-3.00
13.64
27.30
37.42
43.90
46.84
46.50
43.37
38.20
32.01
25.98
21.13
18.13
17.15
17.95
20.02
22.76
25.71
28.46
30.68
32.02
32.10
30.60
27.29
22.26
15.85
8.74
1.67
-4.67
-9.94
-14.24
-18.01
-21.85
-26.18
-31.08
-36.25
-41.21
-45.50
-48.97
-51.79
-54.43
-57.50
-61.63
-67.24
-74.32
-82.30
-89.85
-95.15
-96.18
-91.41
-80.30
-63.53
-42.91
-20.81
0.45
19.15
34.32
45.60
53.07
56.97
57.59
55.41
51.15
45.82
40.63
36.73
34.94
35.54
38.23
42.27
46.77
50.88
54.04
55.95
56.55
55.84
53.85
50.53
45.86
39.94
33.08
25.80
18.69
12.21
6.52
1.40
-3.57
-8.78
-14.38
-20.16
-25.68
-30.44
-34.22
-37.15
-39.81
-43.01
-47.56
-53.96
-62.15
-71.45
-80.55
-87.72
-91.16
-89.37
-81.52
-67.79
-49.37
-28.33
-7.07
12.21
28.03
39.78
47.62
52.03
53.57
52.73
49.96
45.91
41.49
37.67
35.27
34.73
35.97
38.56
41.90
45.40
48.62
51.22
52.99
53.73
53.21
51.19
47.45
42.00
35.17
27.63
20.26
13.82
8.70
4.77
1.52
-1.76
-5.54
-10.01
-15.00
-20.12
-24.90
-29.06
-32.57
-35.67
-38.93
-42.98
-48.35
-55.14
-62.78
-70.12
-75.51
-77.22
-73.88
-64.93
-50.76
-32.72
-12.85
6.69
24.00
37.79
47.47
52.92
54.39
52.38
47.72
41.51
35.10
29.81
26.62
25.96
27.68
31.17
35.61
40.10
43.86
46.29
47.09
46.22
43.92
40.57
36.57
32.17
27.51
22.60
17.47
12.08
6.46
0.63
-5.25
-10.96
-16.19
-20.67
-24.31
-27.25
-29.88
-32.68
-36.18
-40.79
-46.65
-53.43
-60.19
-65.47
-67.59
-65.20
-57.80
-45.97
-31.22
-15.47
-0.49
12.45
22.67
29.92
34.24
35.76
34.82
31.91
27.76
23.27
19.40
16.99
16.53
18.02
20.90
24.25
27.15
28.93
29.44
28.93
27.78
26.28
24.39
21.82
18.27
13.53
7.69
1.17
-5.44
-11.52
-16.60
-20.55
-23.59
-26.18
-28.88
-32.10
-36.02
-40.70
-45.98
-51.55
-56.77
-60.66
-61.99
-59.64
-53.01
-42.35
-28.75
-13.85
0.68
13.46
23.65
30.90
35.20
36.75
35.89
33.16
29.27
25.05
21.38
18.98
18.28
19.21
21.33
23.88
26.16
27.67
28.26
28.07
27.31
26.11
24.40
21.97
18.57
14.03
8.36
1.85
-5.01
-11.56
-17.24
-21.70
-25.04
-27.65
-30.15
-33.10
-36.85
-41.52
-46.95
-52.63
-57.65
-60.80
-60.72
-56.37
-47.52
-34.87
-19.95
-4.59
9.59
21.49
30.59
36.81
40.29
41.30
40.29
37.89
34.88
32.08
30.18
29.62
30.57
32.79
35.78
38.89
41.51
43.28
44.16
44.34
44.01
43.17
41.66
39.20
35.67
31.18
26.13
21.02
16.33
12.35
9.15
6.57
4.28
1.98
-0.52
-3.27
-6.09
-8.84
-11.51
-14.26
-17.38
-21.13
-25.51
-30.24
-34.94
-39.27
-43.14
-46.72
-50.36
-54.56
-59.79
-66.36
-74.27
-82.94
-91.14
-97.11
-99.00
-95.42
-85.96
-71.35
-53.26
-33.84
-15.11
1.41
14.93
25.26
32.74
37.86
41.19
43.22
44.26
44.60
44.48
44.15
43.93
44.07
44.70
45.80
47.18
48.54
49.56
49.92
49.37
47.76
45.12
41.58
37.38
32.76
27.94
23.05
18.18
13.42
8.87
4.65
0.86
-2.50
-5.54
-8.44
-11.43
-14.70
-18.31
-22.19
-26.16
-30.02
-33.65
-37.07
-40.44
-44.07
-48.30
-53.43
-59.58
-66.53
-73.50
-79.21
-82.02
-80.44
-73.54
-61.43
-45.32
-27.18
-9.27
6.53
19.11
28.22
34.29
38.01
40.05
40.84
40.64
39.67
38.29
36.98
36.32
36.68
38.09
40.23
42.64
44.82
46.46
47.45
47.77
47.40
46.22
44.10
41.02
37.07
32.54
27.83
23.34
19.36
16.01
13.24
10.79
8.33
5.60
2.49
-0.85
-4.10
-6.97
-9.38
-11.54
-13.90
-16.87
-20.65
-25.00
-29.45
-33.51
-36.91
-39.73
-42.39
-45.46
-49.44
-54.61
-60.87
-67.70
-74.05
-78.52
-79.63
-76.17
-67.70
-54.73
-38.68
-21.50
-5.20
8.69
19.33
26.55
30.66
32.21
31.78
29.99
27.44
24.77
22.61
21.47
21.65
23.17
25.79
29.06
32.47
35.53
37.87
39.28
39.72
39.26
38.05
36.19
33.72
30.66
27.03
22.98
18.79
14.79
11.30
8.49
6.29
4.53
2.92
1.17
-0.89
-3.35
-6.15
-9.16
-12.17
-15.01
-17.66
-20.24
-23.04
-26.40
-30.62
-35.84
-41.89
-48.28
-54.19
-58.54
-60.17
-58.16
-52.03
-42.00
-29.02
-14.56
-0.33
12.13
21.80
28.23
31.50
32.05
30.50
27.49
23.61
19.47
15.67
12.83
11.40
11.60
13.29
16.03
19.17
22.09
24.36
25.73
26.18
25.72
24.33
22.00
18.74
14.71
10.24
5.69
1.40
-2.51
-6.07
-9.46
-12.80
-16.10
-19.23
-22.05
-24.54
-26.85
-29.29
-32.23
-35.98
-40.59
-45.77
-50.85
-54.83
-56.57
-55.10
-49.88
-41.06
-29.45
-16.36
-3.25
8.63
18.38
25.55
30.00
31.84
31.31
28.86
25.11
20.81
16.77
13.68
12.02
11.96
13.36
15.84
18.84
21.72
23.90
24.98
24.76
23.22
20.52
16.90
12.65
8.08
3.48
-0.82
-4.68
-8.05
-11.10
-14.09
-17.27
-20.78
-24.57
-28.43
-32.10
-35.34
-38.07
-40.45
-42.90
-46.00
-50.31
-55.98
-62.56
-68.86
-73.22
-73.97
-69.96
-60.96
-47.71
-31.76
-15.02
0.72
14.04
24.14
30.82
34.36
35.32
34.43
32.41
29.88
27.42
25.49
24.49
24.72
26.26
28.93
32.31
35.76
38.63
40.42
40.86
39.96
37.93
35.03
31.48
27.49
23.24
18.93
14.74
10.77
6.96
3.14
-0.88
-5.21
-9.71
-14.14
-18.19
-21.71
-24.81
-27.85
-31.31
-35.70
-41.26
-47.82
-54.67
-60.57
-64.00
-63.55
-58.32
-48.32
-34.44
-18.33
-1.89
13.11
25.39
34.30
39.71
41.89
41.37
38.82
35.00
30.76
26.95
24.29
23.25
23.91
26.03
29.09
32.53
35.82
38.57
40.53
41.51
41.32
39.88
37.14
33.29
28.63
23.60
18.63
14.02
9.93
6.30
2.96
-0.30
-3.63
-7.05
-10.54
-14.06
-17.66
-21.51
-25.85
-30.92
-36.75
-42.96
-48.75
-52.98
-54.43
-52.17
-45.86
-35.85
-23.14
-9.13
4.70
17.13
27.24
34.56
38.96
40.56
39.67
36.78
32.52
27.65
22.99
19.37
17.45
17.57
19.62
23.10
27.13
30.78
33.24
34.12
33.37
31.33
28.35
24.75
20.67
16.11
11.10
5.77
0.37
-4.82
-9.54
-13.69
-17.33
-20.64
-23.88
-27.31
-31.18
-35.68
-40.90
-46.62
-52.30
-56.94
-59.29
-58.14
-52.69
-42.91
-29.66
-14.52
0.62
14.01
24.42
31.35
34.91
35.62
34.18
31.29
27.55
23.52
19.78
16.93
15.46
15.69
17.58
20.72
24.37
27.72
30.11
31.19
30.95
29.68
27.65
25.09
22.03
18.45
14.33
9.82
5.19
0.79
-3.09
-6.32
-8.95
-11.21
-13.39
-15.77
-18.54
-21.68
-25.08
-28.52
-31.78
-34.76
-37.52
-40.30
-43.50
-47.60
-52.96
-59.66
-67.25
-74.61
-80.11
-81.90
-78.47
-69.21
-54.70
-36.62
-17.31
0.91
16.27
27.87
35.63
40.01
41.68
41.29
39.42
36.61
33.48
30.76
29.09
28.97
30.47
33.24
36.56
39.67
41.94
43.15
43.37
42.87
41.81
40.20
37.84
34.58
30.40
25.50
20.26
15.14
10.47
6.44
3.06
0.13
-2.61
-5.41
-8.44
-11.71
-15.07
-18.33
-21.29
-23.94
-26.42
-29.04
-32.17
-36.15
-41.15
-47.12
-53.58
-59.59
-63.87
-65.00
-61.85
-53.90
-41.55
-26.02
-9.13
7.17
21.29
32.21
39.60
43.63
44.75
43.49
40.43
36.25
31.74
27.77
25.15
24.36
25.46
28.03
31.38
34.71
37.36
38.92
39.25
38.37
36.37
33.38
29.54
25.08
20.28
15.50
11.02
7.02
3.44
0.09
-3.26
-6.73
-10.23
-13.55
-16.46
-18.90
-20.99
-23.06
-25.51
-28.68
-32.80
-37.87
-43.52
-48.97
-53.08
-54.57
-52.38
-46.02
-35.82
-22.89
-8.80
4.75
16.40
25.27
31.00
33.68
33.65
31.45
27.73
23.20
18.64
14.82
12.40
11.75
12.92
15.52
18.87
22.21
24.92
26.70
27.47
27.32
26.27
24.24
21.07
16.70
11.28
5.21
-0.98
-6.81
-11.94
-16.28
-19.96
-23.22
-26.35
-29.51
-32.72
-35.86
-38.82
-41.59
-44.43
-47.82
-52.24
-57.90
-64.39
-70.68
-75.29
-76.61
-73.47
-65.43
-52.96
-37.38
-20.50
-4.18
10.07
21.40
29.55
34.68
37.10
37.15
35.21
31.88
27.97
24.43
22.12
21.52
22.62
25.09
28.36
31.92
35.27
38.00
39.68
40.03
38.94
36.50
33.01
28.83
24.24
19.53
14.93
10.68
6.94
3.70
0.73
-2.34
-5.83
-9.80
-14.06
-18.18
-21.83
-24.95
-27.79
-30.87
-34.74
-39.73
-45.82
-52.50
-58.80
-63.40
-64.86
-62.02
-54.37
-42.24
-26.89
-10.16
5.95
19.78
30.32
37.30
40.98
41.91
40.66
37.77
33.76
29.28
25.11
22.10
20.91
21.79
24.52
28.41
32.58
36.27
38.96
40.43
40.68
39.78
37.80
34.78
30.81
26.16
21.25
16.57
12.53
9.27
6.64
4.22
1.56
-1.63
-5.35
-9.27
-12.98
-16.09
-18.54
-20.58
-22.73
-25.61
-29.74
-35.31
-42.07
-49.17
-55.34
-59.07
-59.06
-54.57
-45.73
-33.48
-19.32
-4.88
8.43
19.61
28.07
33.55
36.05
35.83
33.37
29.36
24.60
19.92
16.08
13.69
13.14
14.55
17.67
21.90
26.40
30.27
32.75
33.44
32.32
29.67
25.91
21.43
16.50
11.29
5.92
0.55
-4.59
-9.27
-13.36
-16.88
-20.05
-23.15
-26.45
-30.08
-34.13
-38.68
-43.86
-49.68
-55.84
-61.61
-65.73
-66.78
-63.58
-55.64
-43.48
-28.46
-12.53
2.39
14.83
24.06
29.98
32.98
33.55
32.16
29.20
25.12
20.58
16.49
13.80
13.20
14.89
18.40
22.84
27.13
30.42
32.32
32.88
32.38
31.16
29.39
27.04
23.99
20.18
15.72
10.93
6.18
1.88
-1.73
-4.65
-7.07
-9.31
-11.68
-14.37
-17.38
-20.56
-23.73
-26.78
-29.72
-32.75
-36.12
-40.14
-45.09
-51.09
-58.01
-65.27
-71.81
-76.11
-76.62
-72.13
-62.31
-47.90
-30.56
-12.43
4.45
18.60
29.25
36.28
39.99
40.87
39.53
36.64
32.98
29.38
26.60
25.21
25.41
27.07
29.72
32.77
35.64
37.90
39.34
39.96
39.79
38.84
37.05
34.31
30.59
26.02
20.91
15.72
10.88
6.66
3.06
-0.06
-2.98
-5.90
-8.88
-11.86
-14.71
-17.35
-19.85
-22.41
-25.35
-29.03
-33.64
-39.16
-45.11
-50.57
-54.28
-54.92
-51.47
-43.61
-31.89
-17.68
-2.74
11.20
22.91
31.81
37.85
41.27
42.37
41.36
38.56
34.45
29.82
25.68
22.96
22.27
23.68
26.75
30.64
34.41
37.26
38.69
38.54
36.96
34.23
30.67
26.53
21.95
17.06
12.00
6.95
2.10
-2.45
-6.65
-10.51
-14.07
-17.35
-20.36
-23.18
-26.03
-29.20
-33.05
-37.74
-43.03
-48.25
-52.24
-53.69
-51.44
-44.94
-34.44
-21.01
-6.29
7.92
20.12
29.31
35.14
37.75
37.59
35.26
31.40
26.68
21.76
17.34
14.08
12.45
12.67
14.55
17.52
20.80
23.53
25.08
25.14
23.73
21.14
17.70
13.74
9.47
5.05
0.58
-3.81
-8.04
-12.09
-15.98
-19.78
-23.52
-27.23
-30.83
-34.31
-37.64
-40.90
-44.29
-48.13
-52.71
-58.08
-63.80
-68.84
-71.74
-71.01
-65.64
-55.57
-41.71
-25.71
-9.53
5.11
17.02
25.68
31.15
33.82
34.28
33.10
30.89
28.22
25.73
24.05
23.66
24.76
27.13
30.16
33.14
35.47
36.86
37.34
37.08
36.16
34.51
31.98
28.52
24.25
19.56
14.90
10.65
6.97
3.78
0.84
-2.16
-5.36
-8.75
-12.12
-15.21
-17.85
-20.07
-22.18
-24.71
-28.18
-33.00
-39.18
-46.22
-53.13
-58.44
-60.63
-58.51
-51.60
-40.38
-26.21
-10.93
3.63
16.07
25.68
32.31
36.16
37.62
37.06
34.94
31.79
28.31
25.28
23.39
23.07
24.37
26.97
30.29
33.66
36.52
38.48
39.35
39.12
37.85
35.65
32.69
29.16
25.27
21.22
17.19
13.30
9.58
6.01
2.55
-0.80
-4.01
-7.00
-9.74
-12.27
-14.80
-17.64
-21.14
-25.52
-30.76
-36.42
-41.64
-45.30
-46.18
-43.41
-36.75
-26.79
-14.84
-2.51
8.65
17.64
24.01
27.78
29.20
28.57
26.18
22.42
17.90
13.46
10.00
8.29
8.67
10.93
14.40
18.17
21.32
23.20
23.55
22.46
20.26
17.38
14.18
10.84
7.42
3.85
0.10
-3.82
-7.75
-11.53
-14.97
-18.05
-20.84
-23.54
-26.36
-29.51
-33.15
-37.39
-42.18
-47.20
-51.81
-55.03
-55.79
-53.27
-47.17
-37.87
-26.39
-14.11
-2.39
7.65
15.37
20.57
23.36
24.03
22.93
20.44
17.07
13.45
10.33
8.42
8.19
9.71
12.62
16.26
19.85
22.72
24.44
24.86
24.10
22.37
19.93
16.91
13.41
9.46
5.27
1.14
-2.53
-5.50
-7.81
-9.83
-12.06
-14.86
-18.27
-21.99
-25.55
-28.63
-31.20
-33.57
-36.29
-39.87
-44.68
-50.80
-57.93
-65.27
-71.58
-75.37
-75.22
-70.30
-60.70
-47.53
-32.65
-18.12
-5.64
3.84
10.16
13.67
14.91
14.31
12.18
8.89
5.00
1.33
-1.20
-1.78
0.05
4.24
10.28
17.34
24.58
31.29
37.04
41.69
45.27
47.84
49.33
49.59
48.49
46.02
42.46
38.29
34.06
30.17
26.70
23.45
20.03
16.09
11.50
6.43
1.30
-3.39
-7.30
-10.36
-12.89
-15.44
-18.61
-22.86
-28.28
-34.55
-40.97
-46.54
-50.08
-50.54
-47.17
-39.83
-29.06
-16.02
-2.20
10.89
22.11
30.83
36.88
40.34
41.46
40.57
38.08
34.57
30.76
27.43
25.27
24.69
25.69
27.92
30.74
33.48
35.55
36.64
36.66
35.71
33.92
31.42
28.36
24.82
21.01
17.11
13.26
9.53
5.88
2.21
-1.49
-5.19
-8.77
-12.13
-15.26
-18.27
-21.30
-24.54
-28.18
-32.32
-36.89
-41.58
-45.66
-48.12
-47.88
-44.15
-36.83
-26.57
-14.71
-2.81
7.76
16.12
21.92
25.22
26.30
25.46
23.07
19.59
15.66
12.00
9.35
8.22
8.75
10.64
13.30
15.97
17.96
18.75
18.16
16.26
13.34
9.77
5.91
1.96
-2.02
-6.12
-10.44
-14.96
-19.51
-23.85
-27.72
-31.01
-33.79
-36.32
-38.94
-42.03
-45.82
-50.38
-55.44
-60.34
-64.09
-65.47
-63.40
-57.25
-47.17
-34.13
-19.70
-5.65
6.55
16.03
22.64
26.67
28.66
29.05
28.19
26.38
24.05
21.81
20.33
20.15
21.44
23.93
27.05
30.11
32.58
34.12
34.75
34.60
33.84
32.56
30.71
28.16
24.88
20.97
16.74
12.61
9.01
6.15
4.00
2.28
0.57
-1.56
-4.39
-7.94
-12.02
-16.24
-20.21
-23.69
-26.72
-29.62
-32.91
-37.04
-42.21
-48.13
-54.00
-58.62
-60.58
-58.65
-52.19
-41.35
-27.24
-11.65
3.40
16.27
26.04
32.55
36.12
37.24
36.32
33.68
29.81
25.50
21.74
19.49
19.30
21.12
24.29
27.88
30.98
33.01
33.84
33.64
32.77
31.51
30.02
28.26
26.10
23.42
20.27
16.92
13.70
10.96
8.85
7.25
5.85
4.25
2.19
-0.33
-3.09
-5.72
-7.94
-9.72
-11.30
-13.12
-15.66
-19.27
-24.08
-29.86
-36.03
-41.70
-45.73
-47.02
-44.72
-38.54
-28.88
-16.81
-3.83
8.50
18.93
26.76
31.81
34.35
34.76
33.42
30.63
26.73
22.20
17.84
14.51
12.98
13.57
16.02
19.55
23.14
25.88
27.21
27.06
25.68
23.49
20.83
17.86
14.57
10.94
7.02
2.99
-0.87
-4.31
-7.22
-9.68
-11.89
-14.02
-16.21
-18.49
-20.90
-23.52
-26.56
-30.18
-34.40
-38.84
-42.73
-45.01
-44.66
-41.06
-34.22
-24.87
-14.21
-3.57
5.96
13.72
19.46
23.20
25.05
25.13
23.54
20.51
16.54
12.32
8.72
6.53
6.22
7.76
10.63
13.97
16.91
18.79
19.31
18.56
16.76
14.17
11.01
7.42
3.55
-0.37
-4.13
-7.53
-10.47
-13.00
-15.25
-17.48
-19.93
-22.80
-26.19
-30.08
-34.42
-39.12
-44.00
-48.67
-52.47
-54.50
-53.79
-49.69
-42.12
-31.67
-19.50
-6.97
4.65
14.47
21.98
27.06
29.79
30.43
29.31
26.83
23.48
19.85
16.56
14.28
13.44
14.21
16.32
19.15
21.97
24.12
25.26
25.32
24.48
22.91
20.71
17.89
14.41
10.38
6.06
1.87
-1.86
-4.95
-7.48
-9.79
-12.27
-15.19
-18.54
-22.09
-25.44
-28.34
-30.71
-32.81
-35.06
-37.95
-41.86
-46.96
-53.07
-59.66
-65.74
-70.02
-71.16
-68.08
-60.36
-48.44
-33.63
-17.77
-2.75
9.90
19.42
25.77
29.44
31.14
31.51
31.00
29.95
28.61
27.34
26.53
26.53
27.52
29.40
31.84
34.37
36.49
37.92
38.54
38.41
37.67
36.36
34.45
31.84
28.50
24.50
20.14
15.87
12.10
9.10
6.84
5.06
3.41
1.58
-0.55
-2.95
-5.58
-8.41
-11.50
-14.89
-18.52
-22.15
-25.46
-28.26
-30.64
-33.06
-36.23
-40.75
-46.86
-54.17
-61.57
-67.40
-69.89
-67.65
-60.17
-48.00
-32.67
-16.20
-0.58
12.70
22.80
29.49
32.98
33.77
32.51
29.99
27.09
24.64
23.25
23.22
24.53
26.86
29.70
32.45
34.65
36.09
36.84
37.23
37.54
37.84
37.91
37.31
35.65
32.84
29.09
24.85
20.61
16.77
13.46
10.64
8.14
5.70
3.09
0.20
-2.92
-6.11
-9.19
-12.16
-15.17
-18.58
-22.78
-27.96
-33.94
-40.17
-45.71
-49.45
-50.37
-47.75
-41.47
-32.03
-20.45
-8.06
3.84
14.23
22.48
28.31
31.67
32.68
31.61
28.89
25.15
21.17
17.70
15.37
14.53
15.22
17.16
19.89
22.85
25.51
27.44
28.37
28.18
26.89
24.63
21.61
18.03
14.16
10.22
6.38
2.72
-0.74
-4.08
-7.46
-11.07
-15.03
-19.37
-23.93
-28.42
-32.60
-36.43
-40.21
-44.35
-49.08
-54.03
-58.14
-59.88
-57.88
-51.52
-41.17
-28.20
-14.39
-1.32
9.93
18.87
25.38
29.45
31.09
30.29
27.24
22.51
17.07
12.12
8.83
7.89
9.31
12.47
16.33
19.88
22.42
23.62
23.48
22.10
19.62
16.17
12.01
7.50
3.02
-1.09
-4.73
-8.05
-11.32
-14.88
-18.90
-23.35
-27.97
-32.41
-36.27
-39.37
-41.79
-43.96
-46.51
-50.03
-54.77
-60.43
-66.03
-70.09
-70.98
-67.41
-58.85
-45.83
-29.80
-12.75
3.27
16.77
26.97
33.75
37.45
38.57
37.60
35.08
31.70
28.25
25.54
24.21
24.51
26.22
28.80
31.53
33.84
35.40
36.12
36.09
35.42
34.10
32.02
28.94
24.69
19.31
13.08
6.51
0.14
-5.65
-10.80
-15.52
-20.14
-24.88
-29.77
-34.58
-39.04
-42.89
-46.09
-48.75
-51.14
-53.55
-56.18
-59.04
-61.75
-63.50
-63.06
-59.14
-50.80
-37.81
-20.97
-1.93
17.22
34.50
48.49
58.62
65.07
68.43
69.34
68.30
65.61
61.51
56.46
51.13
46.38
42.96
41.29
41.31
42.56
44.38
46.15
47.45
47.98
47.60
46.23
43.85
40.49
36.28
31.46
26.32
21.28
16.73
12.89
9.78
7.10
4.42
1.29
-2.53
-6.91
-11.44
-15.63
-19.14
-21.94
-24.39
-27.06
-30.52
-35.08
-40.57
-46.28
-51.00
-53.32
-51.99
-46.39
-36.72
-24.01
-9.79
4.28
16.84
27.01
34.38
38.92
40.76
40.16
37.51
33.37
28.53
23.93
20.52
19.00
19.57
21.90
25.25
28.67
31.36
32.87
33.14
32.41
30.95
28.93
26.36
23.14
19.17
14.48
9.27
3.87
-1.39
-6.23
-10.56
-14.42
-17.95
-21.35
-24.75
-28.29
-32.10
-36.29
-40.86
-45.57
-49.82
-52.65
-52.98
-49.96
-43.33
-33.59
-21.86
-9.56
1.93
11.64
19.00
23.86
26.28
26.37
24.35
20.59
15.72
10.63
6.37
3.87
3.64
5.59
8.99
12.84
16.12
18.17
18.82
18.30
16.99
15.20
13.03
10.35
7.01
2.95
-1.69
-6.57
-11.27
-15.47
-19.13
-22.51
-26.10
-30.42
-35.72
-41.85
-48.16
-53.60
-57.01
-57.36
-54.01
-46.90
-36.58
-24.16
-11.02
1.47
12.16
20.36
25.83
28.70
29.30
28.08
25.47
21.97
18.08
14.42
11.58
10.11
10.29
12.06
14.98
18.33
21.32
23.32
23.99
23.32
21.52
18.92
15.80
12.38
8.82
5.22
1.69
-1.75
-5.10
-8.46
-11.92
-15.52
-19.25
-23.01
-26.73
-30.35
-33.94
-37.66
-41.75
-46.43
-51.67
-57.02
-61.57
-63.99
-62.97
-57.60
-47.84
-34.55
-19.35
-4.13
9.47
20.44
28.43
33.61
36.41
37.24
36.47
34.47
31.64
28.59
25.95
24.30
23.95
24.87
26.66
28.71
30.40
31.31
31.30
30.49
29.09
27.33
25.27
22.85
19.93
16.38
12.20
7.56
2.76
-1.90
-6.18
-10.02
-13.46
-16.61
-19.60
-22.60
-25.85
-29.60
-34.05
-39.13
-44.31
-48.64
-50.88
-49.89
-45.01
-36.28
-24.49
-11.03
2.50
14.61
24.22
30.82
34.43
35.48
34.59
32.34
29.28
25.88
22.65
20.08
18.62
18.52
19.73
21.88
24.40
26.69
28.34
29.18
29.26
28.73
27.69
26.08
23.79
20.74
17.06
13.07
9.22
5.89
3.17
0.91
-1.21
-3.48
-5.97
-8.57
-11.09
-13.42
-15.64
-18.00
-20.82
-24.36
-28.73
-33.77
-39.02
-43.67
-46.64
-46.87
-43.63
-36.77
-26.89
-15.18
-3.11
7.97
17.12
23.90
28.27
30.44
30.73
29.42
26.88
23.54
19.97
16.78
14.54
13.59
13.93
15.21
16.86
18.32
19.24
19.56
19.35
18.79
17.88
16.46
14.28
11.15
7.12
2.50
-2.19
-6.43
-9.86
-12.47
-14.55
-16.58
-19.03
-22.17
-26.02
-30.40
-34.94
-39.10
-42.25
-43.60
-42.42
-38.24
-31.05
-21.48
-10.59
0.32
10.06
17.82
23.28
26.46
27.60
27.08
25.28
22.62
19.53
16.47
13.89
12.15
11.47
11.83
13.00
14.56
16.00
16.88
16.94
16.03
14.22
11.66
8.51
4.95
1.11
-2.91
-7.08
-11.37
-15.75
-20.08
-24.18
-27.91
-31.24
-34.37
-37.68
-41.55
-46.27
-51.96
-58.42
-65.14
-71.31
-75.93
-77.92
-76.54
-71.48
-63.09
-52.35
-40.57
-29.18
-19.35
-11.84
-6.90
-4.30
-3.48
-3.70
-4.23
-4.47
-3.98
-2.46
0.28
4.40
9.90
16.59
24.01
31.50
38.35
44.01
48.18
50.82
52.05
52.00
50.73
48.28
44.68
40.11
34.97
29.74
24.92
20.82
17.42
14.43
11.43
8.05
4.14
-0.18
-4.64
-8.93
-12.90
-16.57
-20.16
-23.96
-28.28
-33.34
-39.14
-45.26
-50.89
-54.80
-55.68
-52.55
-45.10
-33.88
-20.22
-5.82
7.65
18.95
27.47
33.12
36.18
37.10
36.25
34.02
30.84
27.29
24.12
22.12
21.84
23.37
26.28
29.69
32.62
34.34
34.58
33.52
31.64
29.42
27.18
25.00
22.77
20.34
17.65
14.72
11.73
8.84
6.15
3.65
1.23
-1.26
-3.89
-6.58
-9.18
-11.52
-13.54
-15.37
-17.23
-19.39
-22.05
-25.30
-29.14
-33.53
-38.31
-43.18
-47.58
-50.73
-51.67
-49.60
-44.11
-35.37
-24.23
-11.97
0.01
10.54
18.92
25.01
29.05
31.35
32.19
31.62
29.74
26.78
23.26
19.91
17.49
16.42
16.76
18.12
19.96
21.75
23.16
24.09
24.53
24.48
23.80
22.35
20.03
16.98
13.54
10.21
7.41
5.26
3.62
2.08
0.24
-2.12
-4.97
-8.08
-11.18
-14.11
-16.86
-19.53
-22.33
-25.42
-28.85
-32.41
-35.59
-37.57
-37.47
-34.66
-28.96
-20.89
-11.41
-1.71
7.15
14.43
19.78
23.09
24.42
23.92
21.83
18.50
14.51
10.57
7.49
5.98
6.36
8.43
11.54
14.73
17.14
18.32
18.27
17.36
16.03
14.54
12.96
11.17
9.05
6.57
3.77
0.80
-2.22
-5.20
-8.10
-10.93
-13.80
-16.83
-20.14
-23.77
-27.69
-31.72
-35.50
-38.53
-40.15
-39.64
-36.46
-30.43
-21.93
-11.79
-1.13
8.96
17.61
24.29
28.79
31.09
31.32
29.73
26.66
22.64
18.33
14.44
11.68
10.47
10.90
12.62
14.96
17.06
18.24
18.11
16.64
14.11
10.88
7.29
3.59
-0.09
-3.71
-7.33
-11.06
-14.99
-19.14
-23.43
-27.71
-31.82
-35.72
-39.46
-43.15
-46.94
-50.94
-55.14
-59.29
-62.84
-64.94
-64.59
-60.95
-53.65
-43.04
-30.19
-16.56
-3.64
7.43
16.05
22.13
25.85
27.53
27.49
26.10
23.79
21.07
18.54
16.74
16.09
16.74
18.56
21.19
24.09
26.70
28.57
29.39
29.06
27.67
25.43
22.62
19.54
16.41
13.37
10.38
7.30
3.95
0.21
-3.89
-8.18
-12.43
-16.35
-19.77
-22.65
-25.11
-27.48
-30.19
-33.72
-38.34
-43.91
-49.74
-54.62
-57.09
-55.89
-50.28
-40.38
-27.17
-12.25
2.53
15.56
25.84
33.06
37.50
39.67
40.06
38.95
36.61
33.42
30.02
27.20
25.62
25.52
26.66
28.43
30.18
31.49
32.21
32.44
32.36
32.05
31.42
30.25
28.31
25.45
21.76
17.51
13.14
9.08
5.58
2.64
0.06
-2.40
-4.93
-7.55
-10.22
-12.83
-15.32
-17.68
-19.97
-22.31
-24.90
-28.01
-31.88
-36.54
-41.73
-46.73
-50.49
-51.86
-49.89
-44.16
-34.91
-22.99
-9.68
3.67
15.95
26.41
34.66
40.61
44.31
45.88
45.55
43.60
40.51
36.85
33.32
30.61
29.33
29.72
31.62
34.38
37.09
38.85
39.10
37.82
35.43
32.53
29.61
26.80
23.97
20.84
17.25
13.17
8.74
4.09
-0.67
-5.51
-10.42
-15.31
-20.11
-24.75
-29.23
-33.66
-38.05
-42.31
-45.98
-48.41
-48.82
-46.61
-41.56
-33.91
-24.39
-14.01
-3.80
5.31
12.66
17.88
20.90
21.83
20.96
18.66
15.39
11.69
8.16
5.41
3.93
3.96
5.36
7.68
10.27
12.53
14.05
14.71
14.57
13.73
12.31
10.34
7.88
4.98
1.79
-1.59
-5.09
-8.64
-12.19
-15.66
-19.00
-22.24
-25.51
-29.04
-33.03
-37.58
-42.55
-47.49
-51.67
-54.18
-54.10
-50.75
-43.91
-34.00
-22.01
-9.26
2.93
13.51
21.85
27.69
31.07
32.15
31.24
28.72
25.13
21.08
17.20
14.04
12.05
11.48
12.35
14.39
17.09
19.77
21.77
22.69
22.41
21.07
18.93
16.26
13.23
9.99
6.62
3.23
-0.14
-3.50
-6.89
-10.40
-14.06
-17.78
-21.40
-24.75
-27.69
-30.28
-32.69
-35.31
-38.61
-42.93
-48.25
-54.04
-59.13
-62.06
-61.45
-56.56
-47.50
-35.33
-21.65
-8.07
4.14
14.31
22.25
28.02
31.70
33.35
33.05
31.05
27.83
24.10
20.66
18.20
17.08
17.35
18.72
20.72
22.84
24.61
25.71
25.97
25.38
24.08
22.25
20.07
17.69
15.13
12.35
9.32
5.99
2.43
-1.23
-4.82
-8.19
-11.27
-14.06
-16.64
-19.20
-21.99
-25.35
-29.49
-34.46
-39.91
-45.03
-48.64
-49.47
-46.49
-39.34
-28.57
-15.45
-1.76
10.82
21.11
28.59
33.40
35.99
36.84
36.30
34.63
32.11
29.08
26.06
23.59
22.11
21.84
22.69
24.33
26.29
28.14
29.63
30.68
31.31
31.47
31.03
29.76
27.59
24.60
21.15
17.65
14.40
11.42
8.52
5.42
1.97
-1.81
-5.76
-9.69
-13.55
-17.38
-21.34
-25.64
-30.44
-35.79
-41.54
-47.22
-52.04
-54.97
-55.01
-51.53
-44.52
-34.71
-23.35
-11.89
-1.55
6.93
13.33
17.82
20.61
21.82
21.45
19.53
16.34
12.51
8.91
6.41
5.58
6.54
8.98
12.32
15.91
19.22
21.83
23.51
24.18
23.89
22.76
20.92
18.43
15.30
11.56
7.33
2.91
-1.32
-5.02
-8.07
-10.61
-13.00
-15.70
-19.01
-23.08
-27.83
-32.91
-37.77
-41.67
-43.75
-43.16
-39.38
-32.35
-22.63
-11.28
0.34
10.95
19.61
25.75
29.27
30.31
29.21
26.40
22.47
18.09
13.99
10.81
8.96
8.56
9.50
11.47
14.08
16.91
19.50
21.42
22.26
21.75
19.80
16.57
12.35
7.57
2.68
-1.91
-5.98
-9.48
-12.67
-15.90
-19.53
-23.67
-28.13
-32.52
-36.42
-39.68
-42.46
-45.15
-48.21
-52.02
-56.81
-62.50
-68.71
-74.58
-78.83
-80.01
-76.93
-69.15
-57.25
-42.71
-27.45
-13.29
-1.53
7.25
12.97
15.91
16.46
15.04
12.17
8.49
4.83
2.12
1.27
2.91
7.19
13.70
21.53
29.55
36.79
42.67
47.05
50.14
52.25
53.58
54.16
53.83
52.41
49.81
46.15
41.74
37.01
32.35
27.91
23.62
19.26
14.68
9.94
5.33
1.21
-2.22
-5.08
-7.81
-10.97
-15.06
-20.29
-26.62
-33.74
-41.07
-47.75
-52.75
-54.89
-53.24
-47.37
-37.57
-24.87
-10.78
3.14
15.61
25.81
33.41
38.45
41.10
41.63
40.32
37.57
33.89
29.95
26.45
24.08
23.26
24.04
26.18
29.11
32.16
34.75
36.49
37.24
37.07
36.11
34.54
32.45
29.92
27.03
23.92
20.78
17.81
15.17
12.95
11.12
9.49
7.81
5.80
3.30
0.34
-2.82
-5.84
-8.44
-10.62
-12.63
-14.92
-17.91
-21.85
-26.79
-32.54
-38.74
-44.83
-49.98
-53.15
-53.26
-49.53
-41.85
-30.95
-18.17
-5.09
6.87
16.81
24.30
29.25
31.73
31.89
29.99
26.52
22.10
17.50
13.47
10.59
9.16
9.23
10.59
12.80
15.34
17.73
19.63
20.85
21.33
21.01
19.81
17.69
14.72
11.15
7.40
3.86
0.75
-1.96
-4.45
-6.98
-9.72
-12.63
-15.58
-18.39
-20.95
-23.27
-25.54
-28.11
-31.36
-35.49
-40.38
-45.38
-49.39
-51.09
-49.40
-43.85
-34.76
-23.22
-10.69
1.39
11.88
20.15
25.96
29.33
30.37
29.34
26.56
22.59
18.15
14.07
11.14
9.90
10.50
12.64
15.64
18.65
20.92
22.01
21.88
20.78
19.03
16.88
14.36
11.35
7.66
3.24
-1.83
-7.25
-12.63
-17.58
-21.82
-25.22
-27.94
-30.33
-32.91
-36.23
-40.65
-46.22
-52.49
-58.54
-63.12
-64.95
-63.00
-56.82
-46.70
-33.64
-19.11
-4.74
8.03
18.16
25.14
29.01
30.25
29.52
27.54
24.91
22.08
19.45
17.38
16.26
16.34
17.64
19.84
22.45
24.94
26.93
28.28
29.01
29.12
28.53
27.10
24.71
21.43
17.47
13.12
8.68
4.37
0.30
-3.54
-7.18
-10.71
-14.18
-17.59
-20.83
-23.74
-26.31
-28.67
-31.21
-34.34
-38.44
-43.59
-49.52
-55.51
-60.55
-63.41
-62.87
-58.14
-49.16
-36.73
-22.34
-7.74
5.63
16.93
25.94
32.83
37.79
40.82
41.84
40.82
38.01
34.00
29.67
26.02
23.87
23.69
25.45
28.61
32.34
35.80
38.37
39.79
40.02
39.14
37.21
34.32
30.64
26.51
22.36
18.53
15.16
12.17
9.40
6.70
4.02
1.32
-1.39
-4.16
-7.03
-9.94
-12.79
-15.42
-17.79
-20.00
-22.24
-24.77
-27.85
-31.67
-36.36
-41.82
-47.75
-53.47
-58.03
-60.32
-59.28
-54.22
-45.05
-32.39
-17.54
-2.23
11.89
23.56
32.20
37.88
41.06
42.28
41.90
40.14
37.17
33.33
29.13
25.32
22.54
21.29
21.66
23.38
25.89
28.50
30.56
31.67
31.72
30.86
29.26
27.02
24.09
20.38
15.96
11.13
6.38
2.15
-1.36
-4.30
-7.09
-10.14
-13.76
-17.98
-22.63
-27.57
-32.69
-37.88
-42.91
-47.20
-49.86
-49.90
-46.60
-39.88
-30.42
-19.53
-8.63
1.12
9.15
15.37
19.96
23.02
24.49
24.20
22.13
18.62
14.38
10.33
7.42
6.26
6.99
9.31
12.52
15.86
18.65
20.53
21.39
21.38
20.62
19.17
16.97
13.95
10.13
5.73
1.09
-3.40
-7.50
-11.15
-14.55
-18.02
-21.92
-26.47
-31.67
-37.25
-42.67
-47.20
-50.01
-50.36
-47.72
-41.95
-33.46
-23.07
-12.00
-1.43
7.65
14.68
19.48
22.11
22.74
21.52
18.69
14.69
10.23
6.19
3.39
2.31
2.96
4.90
7.44
9.96
12.06
13.61
14.61
15.09
14.92
13.89
11.76
8.42
4.05
-0.93
-5.90
-10.31
-13.91
-16.82
-19.51
-22.61
-26.65
-31.85
-38.02
-44.53
-50.41
-54.60
-56.06
-54.05
-48.34
-39.29
-27.79
-15.09
-2.46
9.02
18.61
25.91
30.79
33.28
33.55
31.95
29.00
25.39
21.86
19.09
17.58
17.50
18.71
20.80
23.26
25.57
27.31
28.25
28.26
27.28
25.32
22.45
18.80
14.55
9.90
5.02
0.07
-4.88
-9.72
-14.35
-18.64
-22.50
-25.89
-28.88
-31.69
-34.64
-38.22
-42.91
-49.06
-56.67
-65.16
-73.35
-79.57
-82.09
-79.58
-71.60
-58.75
-42.61
-25.35
-9.08
4.69
15.35
23.14
28.82
33.10
36.36
38.63
39.74
39.72
38.91
37.90
37.30
37.51
38.60
40.34
42.44
44.52
46.27
47.41
47.69
46.97
45.22
42.50
38.89
34.55
29.69
24.58
19.61
15.10
11.25
8.00
5.15
2.37
-0.56
-3.89
-7.77
-12.24
-17.18
-22.30
-27.18
-31.44
-34.97
-37.92
-40.76
-44.04
-48.27
-53.79
-60.68
-68.57
-76.56
-83.19
-86.61
-85.15
-77.81
-64.74
-47.31
-27.75
-8.47
8.51
22.00
31.79
38.37
42.53
45.05
46.44
46.93
46.68
45.93
45.15
44.90
45.56
47.17
49.43
51.80
53.82
55.25
56.12
56.52
56.53
56.04
54.82
52.66
49.47
45.37
40.71
35.96
31.62
28.01
25.23
23.10
21.37
19.70
17.95
16.13
14.27
12.37
10.33
7.94
5.06
1.77
-1.66
-4.85
-7.51
-9.62
-11.48
-13.58
-16.40
-20.16
-24.65
-29.39
-33.75
-37.28
-39.90
-41.95
-44.05
-46.87
-50.90
-56.25
-62.58
-68.97
-74.06
-76.27
-74.19
-67.04
-55.03
-39.39
-22.07
-5.11
9.84
21.89
30.74
36.55
39.59
40.26
39.03
36.62
33.93
31.85
31.04
31.78
33.95
37.08
40.56
43.74
46.15
47.60
48.14
48.04
47.59
46.90
45.85
44.14
41.52
37.96
33.66
29.05
24.52
20.35
16.61
13.28
10.29
7.61
5.23
3.14
1.28
-0.53
-2.60
-5.25
-8.71
-12.94
-17.62
-22.25
-26.38
-29.80
-32.68
-35.47
-38.72
-42.85
-48.10
-54.37
-61.17
-67.55
-72.21
-73.72
-70.94
-63.47
-51.87
-37.55
-22.32
-7.89
4.52
14.33
21.44
26.00
28.22
28.34
26.71
23.84
20.47
17.44
15.54
15.29
16.77
19.61
23.15
26.72
29.84
32.30
34.10
35.25
35.63
35.04
33.24
30.22
26.22
21.65
17.02
12.68
8.80
5.34
2.21
-0.69
-3.46
-6.14
-8.80
-11.51
-14.36
-17.39
-20.60
-23.89
-27.17
-30.38
-33.63
-37.14
-41.25
-46.16
-51.84
-57.82
-63.24
-66.89
-67.57
-64.36
-57.00
-45.97
-32.47
-18.09
-4.37
7.51
16.94
23.76
28.03
29.86
29.36
26.77
22.64
17.92
13.73
11.15
10.77
12.59
15.99
20.06
23.87
26.83
28.74
29.72
30.00
29.71
28.83
27.17
24.59
21.10
16.97
12.67
8.66
5.24
2.39
-0.17
-2.87
-6.05
-9.77
-13.83
-17.84
-21.45
-24.53
-27.21
-29.86
-32.99
-37.09
-42.48
-49.19
-56.82
-64.45
-70.74
-74.17
-73.45
-67.92
-57.77
-44.07
-28.45
-12.63
1.88
14.14
23.74
30.69
35.23
37.62
38.15
37.12
34.96
32.24
29.63
27.79
27.20
28.03
30.13
33.11
36.36
39.31
41.42
42.34
41.90
40.12
37.19
33.40
29.11
24.65
20.26
16.08
12.08
8.17
4.24
0.27
-3.65
-7.34
-10.65
-13.53
-16.06
-18.48
-21.01
-23.82
-26.97
-30.44
-34.12
-37.96
-41.95
-46.20
-50.94
-56.43
-62.82
-69.96
-77.20
-83.35
-86.80
-85.97
-79.82
-68.21
-52.15
-33.52
-14.57
2.65
16.85
27.54
34.95
39.60
42.05
42.74
41.98
40.15
37.77
35.49
33.94
33.55
34.46
36.46
39.14
41.98
44.51
46.39
47.45
47.64
46.98
45.50
43.20
40.15
36.48
32.46
28.46
24.76
21.49
18.55
15.65
12.53
9.11
5.49
1.88
-1.51
-4.62
-7.59
-10.62
-13.93
-17.63
-21.64
-25.77
-29.76
-33.40
-36.66
-39.75
-43.07
-47.08
-52.09
-58.05
-64.42
-70.22
-74.10
-74.71
-70.95
-62.34
-49.26
-32.92
-15.10
2.26
17.54
29.79
38.70
44.45
47.43
48.02
46.57
43.54
39.51
35.27
31.64
29.29
28.59
29.53
31.72
34.50
37.18
39.22
40.31
40.50
39.93
38.74
36.91
34.30
30.80
26.50
21.78
17.14
13.07
9.74
6.99
4.37
1.40
-2.21
-6.38
-10.76
-14.87
-18.30
-20.93
-22.99
-24.89
-27.15
-30.20
-34.26
-39.28
-44.95
-50.60
-55.20
-57.57
-56.59
-51.60
-42.65
-30.59
-16.84
-3.02
9.50
19.77
27.33
32.08
34.18
33.91
31.68
28.08
23.82
19.67
16.43
14.66
14.68
16.38
19.28
22.62
25.61
27.67
28.55
28.35
27.32
25.68
23.46
20.54
16.82
12.36
7.42
2.40
-2.30
-6.50
-10.17
-13.46
-16.58
-19.66
-22.83
-26.19
-29.89
-34.11
-38.89
-43.99
-48.71
-52.00
-52.65
-49.72
-42.94
-32.83
-20.65
-8.02
3.55
13.00
19.84
24.09
26.07
26.16
24.72
22.05
18.45
14.39
10.52
7.58
6.19
6.63
8.70
11.70
14.77
17.13
18.40
18.59
18.00
16.92
15.44
13.41
10.62
6.96
2.55
-2.24
-6.93
-11.15
-14.76
-17.84
-20.71
-23.73
-27.27
-31.58
-36.80
-42.91
-49.54
-55.95
-60.98
-63.28
-61.60
-55.33
-44.73
-30.97
-15.80
-1.02
11.97
22.44
30.29
35.74
39.11
40.61
40.42
38.76
36.02
32.80
29.82
27.75
27.04
27.74
29.53
31.85
34.01
35.51
36.10
35.80
34.74
32.99
30.53
27.21
22.96
17.84
12.14
6.33
0.87
-4.01
-8.29
-12.27
-16.32
-20.72
-25.49
-30.31
-34.71
-38.32
-41.12
-43.52
-46.31
-50.35
-56.20
-63.83
-72.44
-80.52
-86.22
-87.76
-83.97
-74.65
-60.66
-43.64
-25.65
-8.54
6.31
18.18
26.96
32.90
36.41
37.89
37.72
36.25
34.00
31.57
29.69
28.95
29.67
31.77
34.79
38.06
40.92
42.92
43.85
43.71
42.64
40.76
38.18
34.99
31.31
27.29
23.07
18.73
14.31
9.76
5.06
0.25
-4.58
-9.26
-13.65
-17.70
-21.52
-25.35
-29.59
-34.65
-40.78
-47.88
-55.22
-61.52
-65.07
-64.30
-58.28
-47.20
-32.40
-15.94
-0.05
13.55
24.00
31.27
35.83
38.24
38.92
38.07
35.90
32.77
29.34
26.40
24.66
24.47
25.76
28.03
30.60
32.84
34.34
34.97
34.81
34.05
32.89
31.49
29.93
28.23
26.36
24.21
21.70
18.81
15.61
12.29
9.08
6.09
3.38
0.84
-1.72
-4.42
-7.27
-10.18
-13.05
-15.89
-18.81
-22.02
-25.70
-29.95
-34.74
-39.98
-45.51
-51.07
-56.14
-59.91
-61.27
-59.14
-52.86
-42.53
-29.13
-14.30
0.19
12.90
23.04
30.44
35.29
37.85
38.29
36.76
33.55
29.26
24.76
21.00
18.74
18.32
19.60
22.10
25.11
27.97
30.18
31.43
31.62
30.83
29.16
26.78
23.80
20.34
16.54
12.57
8.60
4.80
1.19
-2.28
-5.70
-9.15
-12.55
-15.83
-18.93
-21.88
-24.90
-28.28
-32.31
-37.07
-42.32
-47.45
-51.52
-53.45
-52.36
-47.78
-39.90
-29.48
-17.69
-5.84
5.01
14.11
21.06
25.68
27.93
27.91
25.87
22.37
18.17
14.18
11.20
9.72
9.86
11.37
13.75
16.49
19.08
21.17
22.56
23.14
22.92
21.94
20.23
17.73
14.42
10.27
5.40
0.10
-5.29
-10.48
-15.36
-20.02
-24.68
-29.52
-34.67
-40.11
-45.63
-50.85
-55.15
-57.67
-57.53
-54.14
-47.38
-37.83
-26.50
-14.62
-3.28
6.75
14.94
21.01
24.78
26.18
25.38
22.73
18.84
14.51
10.60
7.92
7.03
8.09
10.77
14.33
17.81
20.39
21.65
21.60
20.56
18.89
16.75
14.07
10.64
6.35
1.27
-4.26
-9.84
-15.13
-19.98
-24.41
-28.57
-32.65
-36.84
-41.34
-46.36
-51.97
-57.99
-63.76
-68.22
-70.09
-68.27
-62.27
-52.34
-39.46
-24.98
-10.26
3.62
15.91
26.13
33.98
39.27
41.99
42.31
40.73
37.93
34.74
31.99
30.29
30.00
31.15
33.49
36.55
39.82
42.74
44.85
45.77
45.32
43.45
40.31
36.16
31.27
25.94
20.41
14.89
9.56
4.48
-0.36
-5.08
-9.83
-14.72
-19.74
-24.73
-29.48
-33.88
-38.02
-42.26
-47.13
-53.13
-60.58
-69.24
-78.24
-86.11
-91.02
-91.30
-85.94
-74.95
-59.38
-41.14
-22.33
-4.81
10.19
22.20
31.24
37.60
41.59
43.48
43.54
42.16
39.93
37.50
35.52
34.45
34.46
35.45
37.15
39.19
41.26
43.07
44.42
45.12
44.91
43.52
40.69
36.29
30.49
23.73
16.70
10.10
4.45
-0.15
-4.02
-7.77
-12.04
-17.23
-23.29
-29.81
-36.23
-42.07
-47.23
-52.00
-56.92
-62.61
-69.50
-77.72
-86.94
-96.24
-104.10
-108.57
-107.64
-99.89
-85.01
-64.07
-39.26
-13.30
11.35
32.90
50.47
63.80
73.04
78.40
80.20
78.90
75.25
70.28
65.22
61.22
59.05
58.89
60.37
62.70
65.04
66.78
67.67
67.73
67.10
65.82
63.83
60.96
57.07
52.13
46.30
39.88
33.28
26.87
20.92
15.48
10.39
5.33
0.06
-5.49
-11.08
-16.29
-20.77
-24.49
-27.83
-31.51
-36.29
-42.69
-50.66
-59.50
-67.96
-74.41
-77.29
-75.37
-68.16
-55.99
-40.03
-22.02
-3.88
12.71
26.58
37.20
44.54
48.81
50.28
49.18
45.83
40.79
34.98
29.55
25.68
24.16
25.18
28.19
32.21
36.11
39.00
40.35
40.08
38.32
35.37
31.46
26.82
21.60
15.98
10.13
4.25
-1.47
-6.95
-12.22
-17.37
-22.49
-27.60
-32.63
-37.48
-42.16
-46.89
-52.01
-57.77
-64.00
-69.94
-74.27
-75.45
-72.21
-64.07
-51.48
-35.79
-18.83
-2.45
11.85
23.20
31.31
36.23
38.23
37.61
34.73
30.10
24.50
18.95
14.53
12.10
12.06
14.29
18.16
22.76
27.05
30.15
31.47
30.80
28.35
24.58
20.06
15.22
10.34
5.49
0.66
-4.20
-9.17
-14.33
-19.78
-25.58
-31.63
-37.65
-43.29
-48.29
-52.75
-57.09
-61.95
-67.84
-74.77
-81.94
-87.82
-90.48
-88.17
-79.92
-65.92
-47.51
-26.85
-6.27
12.26
27.48
38.89
46.51
50.65
51.74
50.25
46.80
42.16
37.29
33.13
30.54
30.00
31.50
34.57
38.41
42.13
44.97
46.51
46.59
45.27
42.68
38.99
34.39
29.14
23.52
17.76
11.99
6.21
0.36
-5.62
-11.65
-17.57
-23.14
-28.23
-32.80
-37.02
-41.19
-45.75
-51.14
-57.62
-64.98
-72.37
-78.30
-80.87
-78.42
-70.05
-55.94
-37.43
-16.62
4.19
23.03
38.54
50.08
57.53
61.16
61.43
58.96
54.54
49.11
43.72
39.41
36.95
36.69
38.41
41.46
44.95
47.99
49.96
50.59
49.87
47.99
45.16
41.56
37.33
32.57
27.35
21.77
15.93
9.95
3.98
-1.88
-7.52
-12.84
-17.77
-22.29
-26.46
-30.47
-34.65
-39.41
-45.06
-51.69
-58.88
-65.61
-70.39
-71.53
-67.71
-58.49
-44.50
-27.40
-9.33
7.64
22.02
33.09
40.70
45.02
46.29
44.80
40.99
35.53
29.40
23.73
19.55
17.49
17.65
19.57
22.39
25.19
27.23
28.21
28.26
27.65
26.65
25.18
22.95
19.58
14.89
9.08
2.70
-3.61
-9.33
-14.26
-18.57
-22.64
-26.93
-31.78
-37.36
-43.58
-50.02
-56.03
-60.63
-62.77
-61.51
-56.28
-47.15
-34.83
-20.56
-5.82
8.00
19.79
28.87
34.94
37.94
38.06
35.67
31.43
26.22
21.03
16.87
14.45
14.10
15.63
18.41
21.62
24.46
26.38
27.17
26.90
25.72
23.71
20.79
16.83
11.79
5.83
-0.58
-6.86
-12.53
-17.41
-21.70
-25.91
-30.58
-36.07
-42.43
-49.29
-56.01
-61.70
-65.40
-66.21
-63.45
-56.85
-46.67
-33.65
-18.98
-4.01
9.94
21.81
30.80
36.51
38.84
38.03
34.66
29.52
23.66
18.21
14.20
12.31
12.66
14.79
17.76
20.56
22.41
23.06
22.66
21.61
20.16
18.33
15.89
12.56
8.20
2.94
-2.88
-8.85
-14.59
-19.90
-24.77
-29.41
-34.17
-39.35
-45.14
-51.45
-57.78
-63.23
-66.63
-66.82
-62.97
-54.88
-43.12
-28.90
-13.78
0.77
13.65
24.24
32.29
37.75
40.67
41.25
39.87
37.22
34.16
31.56
30.10
30.08
31.46
33.84
36.67
39.35
41.35
42.32
42.19
41.07
39.17
36.70
33.67
30.03
25.71
20.78
15.51
10.33
5.58
1.40
-2.43
-6.31
-10.61
-15.46
-20.65
-25.67
-30.04
-33.53
-36.29
-38.81
-41.72
-45.62
-50.88
-57.62
-65.57
-74.01
-81.71
-87.04
-88.34
-84.38
-74.82
-60.46
-43.05
-24.77
-7.65
6.92
18.37
26.81
32.72
36.62
38.89
39.81
39.56
38.46
36.98
35.70
35.13
35.59
37.05
39.16
41.44
43.42
44.80
45.45
45.38
44.63
43.17
40.95
37.88
33.95
29.20
23.89
18.38
13.16
8.62
4.99
2.15
-0.25
-2.74
-5.72
-9.36
-13.48
-17.73
-21.74
-25.32
-28.48
-31.44
-34.50
-37.96
-42.11
-47.18
-53.27
-60.17
-67.17
-73.01
-76.15
-75.11
-69.05
-58.06
-43.23
-26.34
-9.34
6.06
18.77
28.35
34.87
38.71
40.38
40.41
39.29
37.53
35.57
33.88
32.82
32.67
33.51
35.20
37.39
39.65
41.53
42.71
43.10
42.75
41.81
40.35
38.37
35.82
32.69
29.07
25.18
21.31
17.68
14.36
11.35
8.57
5.96
3.50
1.16
-1.10
-3.41
-5.92
-8.75
-11.91
-15.29
-18.74
-22.07
-25.21
-28.28
-31.58
-35.51
-40.38
-46.15
-52.27
-57.68
-61.01
-61.01
-56.93
-48.79
-37.38
-24.03
-10.23
2.72
13.92
22.86
29.32
33.29
34.91
34.39
32.12
28.66
24.74
21.20
18.81
18.06
19.07
21.48
24.60
27.66
30.05
31.48
31.97
31.68
30.74
29.14
26.77
23.54
19.53
15.07
10.60
6.51
2.94
-0.24
-3.32
-6.59
-10.12
-13.77
-17.25
-20.40
-23.20
-25.93
-28.96
-32.60
-37.02
-42.14
-47.66
-53.11
-57.77
-60.72
-60.96
-57.67
-50.54
-39.96
-27.06
-13.39
-0.45
10.61
19.13
24.92
28.01
28.60
27.04
23.87
19.90
16.05
13.15
11.75
12.05
13.86
16.70
19.86
22.61
24.31
24.67
23.78
22.06
20.04
18.07
16.18
14.13
11.64
8.61
5.17
1.63
-1.72
-4.77
-7.60
-10.36
-13.20
-16.15
-19.17
-22.18
-25.13
-28.00
-30.87
-33.77
-36.70
-39.65
-42.59
-45.59
-48.85
-52.62
-57.12
-62.37
-68.01
-73.15
-76.58
-76.92
-73.12
-64.76
-52.31
-37.07
-20.80
-5.31
8.05
18.60
26.27
31.34
34.16
34.98
34.02
31.66
28.59
25.72
23.92
23.75
25.26
28.01
31.35
34.70
37.65
39.99
41.60
42.29
41.91
40.39
37.84
34.56
30.94
27.32
23.88
20.64
17.50
14.34
11.15
7.99
4.96
2.12
-0.58
-3.27
-6.10
-9.15
-12.36
-15.59
-18.77
-21.95
-25.27
-28.88
-32.82
-37.07
-41.60
-46.50
-51.93
-57.83
-63.71
-68.47
-70.65
-68.87
-62.44
-51.61
-37.61
-22.21
-7.14
6.36
17.67
26.65
33.30
37.60
39.42
38.76
35.95
31.80
27.43
23.99
22.27
22.51
24.43
27.41
30.75
33.90
36.49
38.30
39.21
39.15
38.10
36.15
33.43
30.12
26.42
22.54
18.61
14.74
10.92
7.04
3.02
-1.15
-5.40
-9.51
-13.30
-16.74
-20.03
-23.56
-27.74
-32.81
-38.72
-44.93
-50.55
-54.47
-55.65
-53.38
-47.49
-38.44
-27.16
-14.84
-2.63
8.49
17.83
24.93
29.50
31.43
30.78
27.95
23.62
18.80
14.50
11.61
10.61
11.48
13.81
16.88
20.00
22.61
24.39
25.24
25.17
24.23
22.44
19.82
16.34
12.05
7.01
1.46
-4.34
-10.10
-15.58
-20.72
-25.64
-30.60
-35.90
-41.74
-48.04
-54.34
-59.84
-63.45
-64.16
-61.23
-54.48
-44.34
-31.79
-18.06
-4.38
8.20
18.98
27.52
33.61
37.14
38.11
36.68
33.21
28.35
23.03
18.35
15.28
14.40
15.64
18.35
21.52
24.14
25.58
25.73
24.80
23.15
20.98
18.20
14.60
9.94
4.23
-2.27
-9.14
-15.92
-22.32
-28.20
-33.67
-38.89
-44.15
-49.74
-55.89
-62.72
-69.97
-76.98
-82.60
-85.42
-84.06
-77.56
-65.74
-49.39
-30.19
-10.29
8.18
23.60
35.21
42.98
47.35
48.86
48.00
45.22
41.11
36.60
32.80
30.72
30.98
33.48
37.53
42.03
45.88
48.24
48.78
47.63
45.21
42.04
38.47
34.58
30.25
25.29
19.66
13.49
7.01
0.47
-5.98
-12.23
-18.14
-23.56
-28.39
-32.80
-37.20
-42.22
-48.30
-55.42
-62.86
-69.21
-72.70
-71.66
-65.03
-52.74
-35.86
-16.34
3.47
21.43
36.10
46.86
53.70
56.96
57.04
54.43
49.77
44.03
38.44
34.21
32.22
32.75
35.43
39.39
43.51
46.79
48.54
48.59
47.21
44.88
42.05
38.91
35.32
30.99
25.74
19.70
13.32
7.17
1.70
-2.98
-7.07
-10.94
-14.91
-19.14
-23.72
-28.74
-34.39
-40.84
-47.93
-54.96
-60.61
-63.16
-61.04
-53.43
-40.69
-24.24
-6.18
11.32
26.59
38.63
47.06
51.87
53.28
51.62
47.48
41.72
35.46
29.89
26.01
24.45
25.25
27.99
31.87
35.96
39.42
41.63
42.33
41.54
39.47
36.35
32.38
27.68
22.32
16.37
9.93
3.11
-3.86
-10.69
-17.08
-22.77
-27.64
-31.83
-35.68
-39.65
-44.16
-49.44
-55.40
-61.50
-66.79
-69.95
-69.63
-64.83
-55.34
-41.92
-26.13
-9.91
4.94
17.20
26.22
31.87
34.29
33.81
30.93
26.40
21.21
16.47
13.19
12.05
13.20
16.27
20.35
24.33
27.25
28.55
28.22
26.70
24.54
22.08
19.28
15.78
11.22
5.49
-1.14
-8.10
-14.78
-20.74
-25.84
-30.23
-34.28
-38.35
-42.80
-47.81
-53.32
-58.98
-64.12
-67.79
-68.84
-66.22
-59.26
-48.01
-33.33
-16.82
-0.40
14.23
25.93
34.35
39.65
42.27
42.57
40.85
37.42
32.88
28.12
24.24
22.18
22.38
24.65
28.22
32.01
35.02
36.56
36.39
34.63
31.62
27.70
23.11
17.99
12.40
6.43
0.21
-6.10
-12.33
-18.34
-24.00
-29.21
-33.96
-38.31
-42.47
-46.83
-51.81
-57.74
-64.56
-71.69
-77.90
-81.57
-81.11
-75.41
-64.32
-48.78
-30.54
-11.75
5.68
20.43
31.87
39.92
44.86
47.11
47.12
45.43
42.67
39.51
36.70
34.89
34.51
35.71
38.19
41.35
44.36
46.50
47.31
46.75
45.14
42.88
40.30
37.49
34.33
30.64
26.29
21.31
15.94
10.50
5.33
0.71
-3.25
-6.62
-9.67
-12.68
-15.97
-19.66
-23.76
-28.09
-32.47
-36.73
-40.82
-44.84
-49.01
-53.64
-59.13
-65.73
-73.41
-81.54
-88.84
-93.51
-93.70
-88.09
-76.40
-59.59
-39.66
-19.10
-0.13
15.72
27.85
36.40
41.82
44.65
45.29
44.17
41.85
39.09
36.75
35.53
35.83
37.59
40.41
43.74
47.00
49.74
51.65
52.55
52.35
51.13
48.99
46.08
42.55
38.51
34.10
29.51
24.98
20.72
16.83
13.32
10.06
6.94
3.86
0.80
-2.26
-5.37
-8.58
-11.99
-15.62
-19.41
-23.22
-26.92
-30.42
-33.76
-37.10
-40.71
-44.96
-50.16
-56.36
-63.20
-69.69
-74.36
-75.60
-72.13
-63.52
-50.38
-34.18
-16.86
-0.31
14.02
25.29
33.23
37.94
39.73
39.04
36.47
32.70
28.55
24.89
22.47
21.80
22.94
25.54
28.88
32.17
34.77
36.38
36.99
36.76
35.78
33.97
31.16
27.22
22.31
16.86
11.44
6.53
2.28
-1.51
-5.26
-9.35
-13.93
-18.78
-23.46
-27.52
-30.74
-33.28
-35.67
-38.63
-42.81
-48.46
-55.25
-62.18
-67.82
-70.64
-69.44
-63.68
-53.61
-40.19
-24.82
-9.05
5.71
18.36
28.18
34.87
38.46
39.27
37.85
34.86
31.07
27.29
24.22
22.39
22.03
23.01
24.95
27.37
29.83
32.03
33.75
34.84
35.13
34.42
32.52
29.37
25.05
19.85
14.23
8.70
3.63
-0.80
-4.71
-8.50
-12.59
-17.25
-22.43
-27.76
-32.71
-36.89
-40.21
-43.04
-46.01
-49.84
-55.04
-61.68
-69.28
-76.75
-82.64
-85.33
-83.46
-76.34
-64.16
-48.09
-29.91
-11.62
5.11
19.17
30.16
38.10
43.20
45.61
45.49
43.14
39.17
34.60
30.64
28.39
28.46
30.78
34.66
39.05
43.00
45.86
47.48
47.99
47.67
46.63
44.82
42.11
38.42
33.84
28.69
23.36
18.22
13.50
9.23
5.27
1.44
-2.45
-6.50
-10.71
-14.98
-19.16
-23.12
-26.75
-30.10
-33.28
-36.53
-40.11
-44.21
-49.00
-54.59
-60.95
-67.83
-74.54
-79.93
-82.54
-80.93
-74.22
-62.45
-46.64
-28.52
-10.01
7.25
22.20
34.29
43.33
49.31
52.34
52.71
50.89
47.58
43.64
39.91
37.15
35.85
36.19
38.00
40.86
44.19
47.42
50.07
51.76
52.23
51.26
48.76
44.77
39.61
33.77
27.85
22.28
17.24
12.55
7.88
2.90
-2.48
-8.12
-13.67
-18.78
-23.28
-27.22
-30.94
-34.89
-39.51
-44.99
-51.08
-57.00
-61.57
-63.45
-61.51
-55.25
-44.92
-31.53
-16.54
-1.51
12.18
23.52
31.86
36.92
38.72
37.53
33.86
28.43
22.14
15.94
10.83
7.59
6.65
7.91
10.74
14.16
17.16
19.00
19.43
18.64
17.07
15.10
12.92
10.37
7.13
2.92
-2.28
-8.22
-14.41
-20.34
-25.73
-30.59
-35.18
-39.86
-44.90
-50.43
-56.33
-62.24
-67.53
-71.25
-72.25
-69.42
-62.08
-50.37
-35.30
-18.54
-1.97
12.85
24.99
34.07
40.12
43.31
43.82
41.87
37.90
32.61
26.97
22.06
18.78
17.64
18.67
21.40
25.07
28.83
31.99
34.07
34.83
34.20
32.19
28.90
24.56
19.47
13.96
8.33
2.70
-2.94
-8.65
-14.46
-20.28
-25.91
-31.14
-35.85
-40.14
-44.27
-48.68
-53.78
-59.86
-66.79
-73.90
-79.90
-83.08
-81.72
-74.65
-61.76
-44.18
-24.02
-3.75
14.49
29.36
40.44
47.88
52.10
53.46
52.27
48.97
44.28
39.22
34.90
32.27
31.77
33.32
36.33
40.00
43.51
46.27
47.96
48.47
47.80
45.95
42.95
38.89
34.01
28.71
23.36
18.16
13.07
7.85
2.26
-3.72
-9.86
-15.76
-21.05
-25.62
-29.61
-33.44
-37.63
-42.66
-48.82
-56.01
-63.60
-70.41
-74.80
-75.16
-70.31
-60.03
-45.13
-27.33
-8.72
8.67
23.38
34.62
42.23
46.52
47.99
47.22
44.77
41.23
37.21
33.47
30.71
29.48
29.98
31.92
34.71
37.69
40.38
42.58
44.22
45.15
45.08
43.54
40.27
35.36
29.33
22.90
16.74
11.16
6.16
1.57
-2.85
-7.18
-11.45
-15.64
-19.76
-23.80
-27.77
-31.75
-35.91
-40.59
-46.11
-52.56
-59.49
-65.81
-70.00
-70.49
-66.19
-56.94
-43.56
-27.59
-10.84
5.04
18.90
30.09
38.29
43.32
45.12
43.83
39.96
34.43
28.43
23.22
19.77
18.56
19.51
22.13
25.66
29.33
32.46
34.56
35.28
34.51
32.25
28.69
24.16
19.02
13.64
8.30
3.14
-1.87
-6.84
-11.89
-17.05
-22.26
-27.38
-32.23
-36.76
-41.03
-45.32
-50.06
-55.70
-62.38
-69.73
-76.68
-81.61
-82.80
-78.94
-69.66
-55.68
-38.64
-20.62
-3.51
11.31
23.20
32.02
37.91
41.04
41.55
39.70
36.01
31.39
26.98
23.95
23.06
24.48
27.70
31.83
35.88
39.15
41.34
42.49
42.78
42.30
41.00
38.71
35.30
30.86
25.67
20.20
14.94
10.20
6.02
2.18
-1.70
-5.95
-10.65
-15.62
-20.45
-24.74
-28.31
-31.25
-33.94
-36.91
-40.74
-45.84
-52.45
-60.42
-69.07
-77.07
-82.65
-83.94
-79.62
-69.36
-54.01
-35.37
-15.64
3.14
19.47
32.50
41.95
47.90
50.68
50.75
48.72
45.33
41.40
37.78
35.18
34.08
34.61
36.51
39.26
42.32
45.24
47.79
49.78
51.00
51.06
49.53
46.12
40.89
34.33
27.25
20.50
14.72
10.10
6.37
2.93
-0.81
-5.24
-10.30
-15.59
-20.53
-24.73
-28.13
-31.10
-34.23
-38.14
-43.22
-49.43
-56.26
-62.67
-67.26
-68.58
-65.40
-57.26
-44.60
-28.78
-11.69
4.72
18.92
30.05
37.85
42.49
44.22
43.37
40.32
35.64
30.19
25.05
21.25
19.51
19.99
22.24
25.42
28.63
31.17
32.73
33.28
32.93
31.77
29.79
26.94
23.20
18.67
13.53
8.02
2.39
-3.15
-8.42
-13.32
-17.80
-21.89
-25.68
-29.28
-32.85
-36.56
-40.61
-45.18
-50.22
-55.33
-59.66
-62.00
-61.11
-56.16
-47.09
-34.69
-20.39
-5.85
7.45
18.56
26.99
32.59
35.42
35.56
33.23
28.90
23.31
17.49
12.53
9.36
8.45
9.79
12.82
16.72
20.61
23.73
25.61
26.02
24.99
22.68
19.37
15.33
10.80
5.95
0.86
-4.43
-9.86
-15.35
-20.75
-25.92
-30.74
-35.12
-39.10
-42.83
-46.64
-50.99
-56.35
-62.92
-70.34
-77.58
-83.05
-84.95
-81.87
-73.22
-59.51
-42.25
-23.55
-5.57
9.99
22.19
30.86
36.26
38.91
39.27
37.80
35.08
31.92
29.26
27.97
28.49
30.68
33.91
37.31
40.16
42.08
43.09
43.39
43.15
42.36
40.84
38.36
34.79
30.23
25.00
19.59
14.48
9.96
5.98
2.18
-1.86
-6.46
-11.63
-17.07
-22.29
-26.92
-30.84
-34.25
-37.56
-41.25
-45.74
-51.23
-57.68
-64.62
-71.10
-75.71
-76.88
-73.32
-64.49
-50.87
-33.98
-15.86
1.48
16.52
28.52
37.31
43.04
45.93
46.20
44.19
40.51
36.14
32.19
29.67
29.10
30.46
33.21
36.61
40.01
43.00
45.45
47.29
48.41
48.61
47.57
45.10
41.18
36.11
30.41
24.69
19.43
14.81
10.70
6.72
2.45
-2.32
-7.50
-12.77
-17.69
-21.94
-25.52
-28.73
-32.10
-36.21
-41.44
-47.79
-54.71
-61.16
-65.74
-67.04
-64.02
-56.37
-44.60
-29.96
-14.09
1.38
15.11
26.25
34.36
39.36
41.32
40.54
37.48
32.87
27.68
22.98
19.71
18.44
19.25
21.69
25.02
28.41
31.18
32.91
33.40
32.67
30.84
28.07
24.51
20.31
15.58
10.42
4.89
-0.90
-6.85
-12.79
-18.55
-23.97
-28.95
-33.44
-37.59
-41.65
-46.04
-51.14
-57.15
-63.83
-70.40
-75.64
-78.10
-76.58
-70.41
-59.79
-45.65
-29.46
-12.86
2.69
16.10
26.70
34.19
38.54
39.91
38.67
35.43
30.98
26.31
22.42
20.10
19.76
21.29
24.14
27.55
30.83
33.53
35.50
36.73
37.18
36.64
34.81
31.47
26.67
20.80
14.49
8.32
2.65
-2.54
-7.49
-12.54
-17.84
-23.30
-28.62
-33.44
-37.54
-40.95
-43.97
-47.09
-50.87
-55.82
-62.11
-69.43
-76.85
-82.84
-85.62
-83.62
-75.95
-62.80
-45.34
-25.51
-5.41
13.13
28.85
41.10
49.74
54.90
56.85
56.05
53.08
48.79
44.17
40.26
37.96
37.73
39.51
42.76
46.63
50.27
53.03
54.59
54.92
54.08
52.11
48.98
44.53
38.77
31.94
24.59
17.50
11.38
6.58
2.96
-0.13
-3.53
-7.87
-13.33
-19.57
-25.90
-31.58
-36.09
-39.39
-41.82
-44.10
-47.12
-51.69
-58.22
-66.52
-75.60
-83.75
-88.86
-89.02
-82.98
-70.63
-53.04
-32.22
-10.55
9.73
26.99
40.34
49.59
54.94
56.78
55.61
52.05
46.94
41.35
36.46
33.26
32.29
33.53
36.43
40.18
44.01
47.35
49.93
51.62
52.36
52.02
50.46
47.56
43.32
37.91
31.66
25.06
18.59
12.69
7.57
3.18
-0.81
-4.77
-9.00
-13.53
-18.16
-22.57
-26.50
-29.96
-33.20
-36.64
-40.73
-45.84
-52.08
-59.27
-66.78
-73.46
-77.83
-78.31
-73.77
-63.88
-49.35
-31.74
-13.11
4.59
19.84
31.78
40.13
44.97
46.52
45.10
41.15
35.33
28.56
21.98
16.73
13.67
13.18
15.04
18.56
22.81
26.85
29.95
31.67
31.83
30.41
27.53
23.34
18.10
12.11
5.66
-0.92
-7.37
-13.49
-19.15
-24.30
-29.09
-33.74
-38.61
-44.07
-50.34
-57.49
-65.30
-73.23
-80.34
-85.36
-86.82
-83.38
-74.31
-59.82
-41.23
-20.61
-0.27
17.89
32.65
43.55
50.54
53.75
53.35
49.71
43.54
36.03
28.63
22.77
19.52
19.18
21.41
25.32
29.84
34.09
37.48
39.78
40.94
40.94
39.61
36.72
32.18
26.16
19.21
12.12
5.61
0.01
-4.83
-9.48
-14.54
-20.36
-26.83
-33.45
-39.50
-44.44
-48.12
-50.91
-53.62
-57.27
-62.72
-70.35
-79.67
-89.29
-97.03
-100.48
-97.63
-87.54
-70.70
-48.90
-24.75
-0.90
20.47
38.05
51.30
60.17
64.83
65.56
62.81
57.43
50.62
43.91
38.72
36.09
36.33
39.00
43.12
47.56
51.44
54.36
56.32
57.53
58.04
57.61
55.75
52.05
46.45
39.40
31.70
24.19
17.38
11.38
5.91
0.58
-4.88
-10.53
-16.18
-21.56
-26.41
-30.59
-34.14
-37.34
-40.62
-44.53
-49.63
-56.30
-64.53
-73.79
-82.82
-89.78
-92.60
-89.55
-79.81
-63.86
-43.35
-20.66
1.76
21.93
38.56
51.00
59.00
62.60
62.13
58.27
52.10
44.98
38.31
33.28
30.68
30.71
33.07
37.03
41.66
46.05
49.50
51.61
52.29
51.55
49.50
46.20
41.73
36.30
30.21
23.86
17.62
11.68
6.06
0.59
-4.88
-10.41
-15.92
-21.27
-26.31
-31.04
-35.57
-40.22
-45.37
-51.31
-58.06
-65.12
-71.42
-75.45
-75.58
-70.65
-60.31
-45.30
-27.24
-8.25
9.67
24.96
36.76
44.72
48.85
49.31
46.44
40.83
33.50
25.78
19.16
14.87
13.50
14.90
18.27
22.46
26.39
29.30
30.84
30.96
29.81
27.54
24.25
20.07
15.08
9.37
3.05
-3.72
-10.75
-17.78
-24.54
-30.81
-36.45
-41.48
-46.07
-50.54
-55.31
-60.81
-67.29
-74.58
-81.91
-87.89
-90.76
-88.83
-81.12
-67.69
-49.74
-29.30
-8.61
10.37
26.40
38.88
47.75
53.11
55.17
54.25
50.87
45.90
40.50
35.90
33.11
32.69
34.59
38.26
42.81
47.37
51.22
53.97
55.49
55.78
54.84
52.61
48.97
43.89
37.58
30.48
23.20
16.37
10.35
5.17
0.54
-4.02
-8.86
-14.06
-19.42
-24.52
-28.97
-32.60
-35.58
-38.32
-41.41
-45.45
-50.92
-58.00
-66.43
-75.30
-83.05
-87.70
-87.36
-80.84
-68.10
-50.33
-29.66
-8.53
10.91
27.24
39.78
48.51
53.68
55.72
55.11
52.46
48.52
44.21
40.48
38.10
37.46
38.46
40.61
43.24
45.75
47.80
49.23
49.97
49.86
48.67
46.16
42.30
37.25
31.40
25.19
18.99
12.99
7.23
1.71
-3.58
-8.55
-13.12
-17.26
-20.97
-24.39
-27.77
-31.41
-35.66
-40.76
-46.73
-53.28
-59.64
-64.65
-66.99
-65.48
-59.48
-49.10
-35.27
-19.47
-3.42
11.34
23.67
32.90
38.76
41.28
40.72
37.60
32.73
27.17
22.06
18.38
16.76
17.28
19.60
23.03
26.85
30.43
33.36
35.37
36.24
35.76
33.77
30.26
25.45
19.78
13.81
8.05
2.81
-1.87
-6.09
-10.02
-13.80
-17.48
-21.04
-24.45
-27.72
-30.90
-34.12
-37.62
-41.70
-46.62
-52.39
-58.59
-64.31
-68.22
-68.99
-65.65
-57.98
-46.57
-32.62
-17.68
-3.18
9.74
20.35
28.21
33.15
35.16
34.42
31.40
26.88
21.88
17.53
14.77
14.12
15.61
18.74
22.76
26.84
30.23
32.40
33.06
32.18
29.89
26.51
22.43
18.00
13.49
8.97
4.42
-0.34
-5.44
-10.94
-16.76
-22.67
-28.33
-33.40
-37.71
-41.31
-44.56
-48.07
-52.47
-58.14
-64.99
-72.26
-78.53
-82.10
-81.43
-75.60
-64.66
-49.66
-32.36
-14.73
1.54
15.25
25.80
33.05
37.18
38.58
37.79
35.53
32.61
29.86
28.03
27.60
28.71
31.11
34.19
37.23
39.56
40.86
41.14
40.69
39.80
38.63
37.05
34.72
31.37
26.89
21.46
15.48
9.41
3.60
-1.79
-6.84
-11.72
-16.57
-21.41
-26.10
-30.40
-34.15
-37.47
-40.72
-44.55
-49.61
-56.24
-64.27
-72.86
-80.63
-85.89
-87.05
-83.06
-73.64
-59.48
-42.05
-23.26
-4.99
11.31
24.87
35.48
43.33
48.69
51.79
52.81
52.02
49.95
47.35
45.12
44.04
44.51
46.48
49.49
52.88
56.01
58.45
60.00
60.62
60.31
59.02
56.63
53.14
48.69
43.70
38.71
34.21
30.43
27.25
24.28
21.12
17.56
13.68
9.84
6.44
3.72
1.67
0.00
-1.69
-3.70
-6.15
-8.92
-11.81
-14.72
-17.73
-21.05
-24.87
-29.18
-33.76
-38.22
-42.28
-45.80
-48.87
-51.71
-54.59
-57.85
-61.86
-67.01
-73.51
-81.15
-89.08
-95.84
-99.66
-98.95
-92.82
-81.33
-65.47
-46.95
-27.71
-9.48
6.57
19.88
30.45
38.46
44.06
47.30
48.19
46.97
44.28
40.98
38.10
36.47
36.55
38.35
41.56
45.65
50.03
54.13
57.47
59.66
60.43
59.51
56.78
52.31
46.49
40.08
33.95
28.79
24.84
21.77
18.96
15.84
12.23
8.36
4.65
1.39
-1.46
-4.21
-7.17
-10.49
-14.05
-17.60
-20.93
-24.00
-26.93
-29.99
-33.43
-37.49
-42.38
-48.18
-54.70
-61.35
-67.10
-70.63
-70.72
-66.63
-58.35
-46.63
-32.69
-17.92
-3.56
9.41
20.26
28.46
33.67
35.83
35.18
32.28
27.97
23.23
19.02
16.09
14.90
15.50
17.60
20.65
24.04
27.23
29.82
31.57
32.27
31.79
29.98
26.85
22.57
17.49
12.04
6.63
1.48
-3.34
-7.86
-12.16
-16.23
-20.04
-23.55
-26.79
-29.85
-32.94
-36.26
-40.01
-44.30
-49.03
-53.80
-57.89
-60.34
-60.21
-56.86
-50.16
-40.57
-28.98
-16.49
-4.18
7.02
16.38
23.41
27.80
29.49
28.61
25.55
20.96
15.75
10.93
7.52
6.20
7.11
9.83
13.48
17.09
19.96
21.74
22.37
21.94
20.45
17.87
14.16
9.46
4.10
-1.49
-6.90
-11.92
-16.55
-21.05
-25.76
-31.03
-37.06
-43.83
-51.10
-58.30
-64.61
-68.94
-70.16
-67.40
-60.22
-48.99
-34.76
-19.03
-3.43
10.75
22.68
32.00
38.63
42.58
43.94
42.88
39.89
35.70
31.31
27.69
25.59
25.31
26.71
29.25
32.24
35.02
37.06
38.04
37.78
36.18
33.26
29.13
24.07
18.48
12.81
7.33
2.08
-3.14
-8.63
-14.59
-20.96
-27.45
-33.63
-39.07
-43.64
-47.45
-50.95
-54.76
-59.52
-65.60
-72.83
-80.36
-86.67
-89.91
-88.42
-81.32
-68.80
-52.13
-33.20
-14.07
3.61
18.84
31.17
40.55
47.10
50.99
52.50
52.07
50.39
48.23
46.41
45.52
45.83
47.26
49.45
51.91
54.19
55.98
57.09
57.37
56.67
54.81
51.63
47.11
41.48
35.15
28.63
22.32
16.41
10.83
5.35
-0.21
-5.85
-11.45
-16.74
-21.54
-25.79
-29.69
-33.63
-38.12
-43.65
-50.53
-58.59
-67.09
-74.67
-79.58
-80.09
-75.10
-64.46
-49.18
-31.12
-12.47
4.83
19.51
31.05
39.52
45.29
48.72
50.14
49.88
48.41
46.31
44.30
43.01
42.86
43.97
46.11
48.82
51.54
53.74
55.05
55.29
54.49
52.80
50.37
47.29
43.58
39.22
34.25
28.85
23.32
17.99
13.13
8.83
5.06
1.68
-1.46
-4.51
-7.55
-10.66
-13.95
-17.46
-21.23
-25.17
-29.17
-33.06
-36.84
-40.62
-44.73
-49.55
-55.31
-61.86
-68.50
-73.97
-76.73
-75.39
-69.16
-58.14
-43.34
-26.42
-9.20
6.70
20.20
30.74
38.16
42.59
44.25
43.52
40.95
37.30
33.53
30.59
29.22
29.72
31.92
35.25
38.96
42.38
45.07
46.88
47.79
47.86
47.05
45.23
42.33
38.39
33.65
28.50
23.37
18.56
14.23
10.37
6.88
3.69
0.72
-2.09
-4.82
-7.56
-10.37
-13.27
-16.17
-19.04
-21.92
-24.92
-28.19
-31.85
-36.00
-40.72
-46.03
-51.80
-57.58
-62.47
-65.26
-64.76
-60.22
-51.61
-39.74
-25.95
-11.77
1.45
12.74
21.54
27.51
30.55
30.75
28.55
24.69
20.18
16.11
13.40
12.55
13.53
15.85
18.77
21.57
23.78
25.23
26.03
26.28
26.02
25.11
23.32
20.53
16.80
12.41
7.75
3.18
-1.10
-5.09
-8.84
-12.37
-15.65
-18.56
-21.07
-23.30
-25.54
-28.16
-31.50
-35.71
-40.66
-45.88
-50.62
-53.96
-54.96
-52.94
-47.63
-39.29
-28.70
-16.99
-5.38
5.07
13.67
20.06
24.18
26.14
26.05
24.13
20.74
16.49
12.22
8.84
7.12
7.39
9.47
12.70
16.25
19.34
21.50
22.63
22.83
22.20
20.74
18.37
15.00
10.68
5.69
0.44
-4.63
-9.23
-13.27
-16.78
-19.90
-22.77
-25.61
-28.72
-32.44
-37.02
-42.48
-48.46
-54.22
-58.73
-60.94
-59.93
-55.23
-46.93
-35.70
-22.72
-9.43
2.84
13.10
20.89
26.23
29.37
30.64
30.34
28.78
26.35
23.60
21.15
19.57
19.25
20.26
22.42
25.26
28.23
30.69
32.16
32.32
31.09
28.60
25.11
20.93
16.34
11.50
6.54
1.56
-3.35
-8.09
-12.57
-16.74
-20.64
-24.37
-28.01
-31.59
-35.10
-38.57
-42.13
-46.15
-51.10
-57.27
-64.47
-71.73
-77.49
-80.01
-77.96
-70.95
-59.61
-45.39
-30.03
-15.04
-1.44
10.30
20.11
27.99
34.00
38.10
40.30
40.75
39.82
38.08
36.24
34.94
34.67
35.58
37.50
40.02
42.61
44.78
46.16
46.57
45.98
44.37
41.80
38.28
33.87
28.69
23.01
17.19
11.65
6.76
2.65
-0.77
-3.85
-7.06
-10.78
-15.12
-19.83
-24.45
-28.47
-31.64
-34.12
-36.50
-39.54
-43.98
-50.18
-58.03
-66.87
-75.49
-82.35
-85.78
-84.39
-77.45
-65.18
-48.83
-30.37
-11.94
4.64
18.29
28.70
36.10
40.98
43.77
44.82
44.45
43.11
41.40
39.99
39.43
40.00
41.60
43.85
46.22
48.30
49.82
50.72
51.03
50.71
49.66
47.69
44.61
40.39
35.19
29.34
23.29
17.43
12.01
7.09
2.53
-1.93
-6.48
-11.20
-15.96
-20.53
-24.66
-28.26
-31.41
-34.49
-38.00
-42.43
-48.05
-54.76
-61.92
-68.45
-72.95
-74.01
-70.58
-62.29
-49.64
-33.86
-16.69
0.07
15.01
27.22
36.35
42.39
45.55
46.14
44.57
41.45
37.69
34.30
32.18
31.92
33.56
36.65
40.40
43.98
46.72
48.28
48.59
47.76
46.01
43.53
40.44
36.86
32.83
28.50
24.05
19.69
15.58
11.77
8.11
4.35
0.23
-4.31
-9.09
-13.70
-17.73
-20.95
-23.46
-25.65
-28.06
-31.11
-35.09
-40.07
-45.99
-52.55
-59.19
-64.93
-68.50
-68.59
-64.28
-55.37
-42.59
-27.34
-11.37
3.69
16.64
26.80
33.97
38.25
39.92
39.39
37.09
33.54
29.36
25.24
21.91
19.94
19.60
20.82
23.16
26.09
29.06
31.66
33.57
34.51
34.21
32.46
29.25
24.79
19.54
14.09
8.93
4.33
0.34
-3.19
-6.52
-9.81
-13.19
-16.65
-20.11
-23.55
-27.05
-30.77
-34.99
-39.86
-45.25
-50.74
-55.50
-58.58
-59.03
-56.21
-49.91
-40.48
-28.75
-15.87
-3.09
8.53
18.20
25.47
30.17
32.33
32.10
29.79
25.94
21.31
16.87
13.53
11.98
12.50
14.86
18.43
22.38
25.83
28.12
28.88
28.10
26.04
23.04
19.44
15.42
11.12
6.65
2.16
-2.16
-6.15
-9.79
-13.18
-16.49
-19.88
-23.37
-26.94
-30.57
-34.32
-38.34
-42.78
-47.61
-52.35
-56.18
-58.01
-56.85
-52.17
-44.12
-33.50
-21.51
-9.33
2.05
11.97
20.02
25.91
29.38
30.32
28.91
25.67
21.47
17.30
14.07
12.44
12.68
14.62
17.71
21.21
24.30
26.39
27.15
26.57
24.82
22.16
18.80
14.92
10.66
6.19
1.68
-2.71
-6.89
-10.88
-14.78
-18.75
-22.95
-27.55
-32.68
-38.33
-44.25
-49.85
-54.27
-56.53
-55.76
-51.50
-43.84
-33.47
-21.50
-9.26
2.02
11.49
18.71
23.65
26.50
27.51
26.83
24.65
21.30
17.42
13.88
11.59
11.18
12.77
15.90
19.71
23.25
25.77
26.91
26.68
25.29
22.99
19.96
16.34
12.28
7.97
3.67
-0.44
-4.26
-7.89
-11.52
-15.35
-19.56
-24.24
-29.44
-35.14
-41.28
-47.57
-53.44
-58.06
-60.45
-59.73
-55.42
-47.55
-36.73
-24.01
-10.69
2.05
13.26
22.50
29.68
34.90
38.25
39.73
39.30
37.12
33.68
29.83
26.51
24.55
24.29
25.61
28.00
30.78
33.25
34.92
35.42
34.61
32.51
29.32
25.36
20.93
16.29
11.61
6.98
2.45
-1.99
-6.37
-10.77
-15.25
-19.80
-24.36
-28.78
-33.02
-37.18
-41.48
-46.25
-51.65
-57.47
-62.97
-66.96
-68.09
-65.22
-57.89
-46.50
-32.28
-16.91
-2.02
11.21
22.27
31.14
38.03
43.07
46.27
47.61
47.27
45.75
43.72
41.93
40.94
40.99
42.01
43.74
45.81
47.83
49.44
50.32
50.26
49.15
47.03
44.01
40.30
36.11
31.68
27.24
22.96
18.91
15.07
11.32
7.56
3.76
-0.04
-3.72
-7.17
-10.33
-13.29
-16.20
-19.30
-22.79
-26.75
-31.11
-35.67
-40.15
-44.36
-48.27
-52.05
-56.14
-61.02
-67.04
-74.08
-81.46
-87.79
-91.42
-90.80
-85.05
-74.31
-59.66
-42.81
-25.56
-9.39
4.79
16.58
25.90
32.84
37.55
40.20
41.03
40.44
38.97
37.33
36.24
36.22
37.43
39.64
42.29
44.78
46.64
47.71
48.02
47.68
46.74
45.20
42.99
40.13
36.64
32.63
28.20
23.49
18.65
13.88
9.41
5.40
1.86
-1.27
-4.15
-6.97
-9.83
-12.82
-15.98
-19.38
-23.05
-27.07
-31.45
-36.28
-41.65
-47.62
-54.07
-60.56
-66.26
-70.01
-70.62
-67.24
-59.65
-48.38
-34.62
-19.87
-5.54
7.32
18.13
26.67
32.95
36.99
38.79
38.49
36.42
33.23
29.81
27.07
25.70
25.98
27.69
30.30
33.13
35.56
37.25
38.09
38.14
37.56
36.44
34.74
32.33
29.17
25.31
21.01
16.63
12.51
8.88
5.71
2.79
-0.17
-3.40
-6.97
-10.73
-14.33
-17.47
-19.94
-21.87
-23.66
-25.88
-29.02
-33.38
-38.89
-45.13
-51.39
-56.78
-60.26
-60.86
-57.86
-51.03
-40.80
-28.20
-14.62
-1.44
10.31
20.05
27.60
32.94
36.14
37.29
36.54
34.29
31.11
27.72
24.86
23.10
22.74
23.80
26.00
28.88
31.89
34.52
36.37
37.14
36.70
34.96
31.96
27.88
23.08
18.00
13.15
8.89
5.32
2.29
-0.55
-3.53
-6.86
-10.53
-14.34
-18.03
-21.39
-24.35
-27.01
-29.65
-32.61
-36.22
-40.63
-45.63
-50.55
-54.36
-55.93
-54.36
-49.33
-41.21
-30.92
-19.66
-8.49
1.79
10.72
18.00
23.37
26.63
27.66
26.65
24.05
20.56
16.95
13.92
11.94
11.21
11.71
13.21
15.34
17.64
19.63
20.90
21.13
20.23
18.28
15.48
12.11
8.44
4.68
0.94
-2.73
-6.40
-10.09
-13.82
-17.54
-21.17
-24.57
-27.67
-30.46
-33.02
-35.57
-38.37
-41.61
-45.28
-48.95
-51.80
-52.77
-50.91
-45.71
-37.40
-26.81
-15.22
-3.89
6.23
14.53
20.75
24.74
26.44
25.90
23.40
19.53
15.14
11.16
8.40
7.34
7.98
9.99
12.79
15.73
18.32
20.23
21.39
21.81
21.51
20.49
18.65
15.91
12.25
7.80
2.82
-2.32
-7.31
-11.94
-16.13
-19.91
-23.42
-26.91
-30.72
-35.17
-40.39
-46.13
-51.62
-55.75
-57.32
-55.41
-49.69
-40.52
-28.84
-15.81
-2.63
9.70
20.39
28.86
34.75
38.01
38.82
37.64
35.08
31.87
28.77
26.46
25.43
25.86
27.58
30.11
32.85
35.27
37.08
38.18
38.63
38.41
37.38
35.36
32.22
28.03
23.09
17.84
12.68
7.84
3.34
-1.05
-5.57
-10.38
-15.44
-20.51
-25.24
-29.41
-33.03
-36.39
-39.98
-44.30
-49.65
-56.03
-63.05
-69.94
-75.66
-79.02
-78.90
-74.50
-65.63
-52.78
-37.11
-20.21
-3.70
11.09
23.35
32.75
39.36
43.45
45.34
45.36
43.96
41.69
39.21
37.16
35.98
35.78
36.40
37.53
38.81
40.04
41.10
41.84
42.05
41.40
39.60
36.54
32.30
27.19
21.63
16.01
10.62
5.66
1.13
-3.06
-7.13
-11.24
-15.48
-19.76
-23.92
-27.83
-31.60
-35.57
-40.24
-46.03
-52.96
-60.47
-67.46
-72.46
-74.05
-71.24
-63.73
-52.03
-37.34
-21.25
-5.36
9.02
21.09
30.46
37.08
40.99
42.27
41.14
37.99
33.54
28.77
24.72
22.26
21.88
23.60
26.89
30.92
34.78
37.70
39.28
39.47
38.48
36.53
33.79
30.27
26.03
21.19
16.00
10.71
5.49
0.32
-4.88
-10.19
-15.51
-20.67
-25.53
-30.18
-34.90
-40.08
-45.97
-52.46
-58.92
-64.26
-67.15
-66.33
-61.05
-51.31
-37.92
-22.39
-6.43
8.38
20.98
30.88
38.03
42.57
44.73
44.67
42.70
39.33
35.31
31.60
29.10
28.43
29.71
32.51
36.10
39.63
42.47
44.28
45.01
44.69
43.38
41.08
37.83
33.77
29.13
24.22
19.23
14.21
9.13
3.91
-1.46
-6.87
-12.19
-17.23
-21.85
-25.97
-29.64
-33.13
-36.90
-41.40
-46.82
-52.79
-58.34
-62.07
-62.60
-59.01
-51.15
-39.65
-25.72
-10.85
3.54
16.22
26.35
33.41
37.18
37.69
35.23
30.36
24.01
17.41
11.83
8.28
7.23
8.37
10.92
13.93
16.64
18.75
20.19
21.04
21.19
20.43
18.48
15.27
10.97
5.95
0.68
-4.43
-9.14
-13.39
-17.28
-21.10
-25.21
-29.97
-35.57
-41.87
-48.39
-54.28
-58.51
-60.09
-58.32
-52.93
-44.15
-32.77
-19.88
-6.75
5.50
16.07
24.46
30.51
34.16
35.45
34.51
31.67
27.52
22.93
18.76
15.72
14.20
14.21
15.44
17.49
19.89
22.19
24.03
25.13
25.26
24.31
22.15
18.67
13.88
8.00
1.49
-4.97
-10.73
-15.39
-19.01
-22.02
-25.09
-28.82
-33.56
-39.27
-45.50
-51.44
-56.00
-58.05
-56.57
-51.07
-41.65
-29.14
-14.85
-0.24
13.36
24.96
33.98
40.15
43.45
44.01
42.12
38.29
33.26
27.96
23.39
20.35
19.30
20.17
22.41
25.19
27.65
29.13
29.32
28.19
25.90
22.61
18.51
13.74
8.51
3.05
-2.45
-7.83
-13.05
-18.10
-22.99
-27.66
-32.03
-36.14
-40.19
-44.52
-49.55
-55.50
-62.19
-68.87
-74.29
-76.98
-75.64
-69.55
-58.84
-44.44
-27.92
-11.01
4.69
18.06
28.50
35.94
40.61
42.99
43.57
42.88
41.44
39.76
38.32
37.55
37.67
38.68
40.32
42.22
43.97
45.29
46.00
45.96
45.02
43.00
39.77
35.36
29.94
23.84
17.47
11.22
5.36
0.00
-4.90
-9.53
-14.06
-18.64
-23.22
-27.65
-31.82
-35.79
-39.88
-44.59
-50.36
-57.32
-65.06
-72.54
-78.31
-80.82
-78.85
-71.92
-60.39
-45.48
-28.85
-12.20
3.14
16.41
27.34
35.93
42.27
46.43
48.48
48.67
47.42
45.30
42.97
41.09
40.14
40.39
41.77
43.93
46.30
48.34
49.61
49.98
49.41
47.96
45.62
42.35
38.24
33.55
28.72
24.22
20.37
17.17
14.39
11.65
8.66
5.29
1.64
-2.02
-5.45
-8.49
-11.17
-13.73
-16.48
-19.68
-23.40
-27.47
-31.61
-35.60
-39.41
-43.21
-47.40
-52.34
-58.28
-65.15
-72.41
-78.99
-83.49
-84.44
-80.73
-72.12
-59.22
-43.48
-26.70
-10.54
3.85
15.87
25.36
32.34
36.89
39.11
39.22
37.62
34.98
32.12
29.86
28.87
29.42
31.39
34.32
37.59
40.59
42.90
44.31
44.74
44.23
42.80
40.53
37.47
33.73
29.50
25.03
20.64
16.59
13.02
9.91
6.99
3.93
0.45
-3.53
-7.81
-12.01
-15.75
-18.79
-21.21
-23.32
-25.61
-28.64
-32.87
-38.56
-45.61
-53.50
-61.22
-67.50
-70.99
-70.63
-65.94
-57.15
-45.22
-31.58
-17.81
-5.23
5.32
13.54
19.57
23.71
26.22
27.27
26.99
25.63
23.62
21.54
19.99
19.40
19.93
21.44
23.62
26.01
28.17
29.75
30.54
30.47
29.62
27.99
25.53
22.13
17.78
12.65
7.12
1.72
-3.14
-7.22
-10.58
-13.54
-16.46
-19.76
-23.73
-28.56
-34.18
-40.26
-46.19
-51.13
-54.18
-54.55
-51.74
-45.60
-36.46
-25.13
-12.81
-0.80
9.78
18.20
24.24
28.08
30.00
30.28
29.14
26.77
23.50
19.88
16.58
14.27
13.45
14.21
16.28
19.09
21.93
24.21
25.59
26.03
25.63
24.47
22.40
19.26
15.03
9.93
4.57
-0.44
-4.66
-8.10
-11.13
-14.24
-17.86
-22.17
-27.22
-32.92
-39.05
-45.26
-50.80
-54.72
-55.97
-53.77
-47.90
-38.80
-27.40
-15.01
-2.91
7.89
16.75
23.44
28.07
30.89
32.10
31.85
30.24
27.49
24.06
20.57
17.73
16.10
15.95
17.11
19.18
21.65
24.04
26.03
27.48
28.29
28.34
27.42
25.29
21.83
17.17
11.71
6.07
0.84
-3.64
-7.33
-10.53
-13.63
-17.04
-21.12
-26.08
-31.93
-38.36
-44.74
-50.05
-53.14
-53.02
-49.10
-41.46
-30.81
-18.27
-5.23
6.99
17.37
25.33
30.64
33.44
34.01
32.73
29.99
26.30
22.24
18.47
15.56
13.83
13.29
13.74
14.82
16.27
17.92
19.67
21.39
22.80
23.47
22.86
20.55
16.36
10.54
3.75
-3.16
-9.42
-14.64
-18.95
-22.86
-26.99
-31.87
-37.65
-44.19
-50.99
-57.26
-61.96
-63.97
-62.30
-56.49
-46.79
-34.17
-20.08
-6.06
6.60
16.97
24.52
29.02
30.55
29.42
26.26
21.94
17.40
13.50
10.86
9.69
9.91
11.12
12.78
14.42
15.77
16.78
17.58
18.22
18.49
18.01
16.25
12.91
8.06
2.08
-4.42
-10.92
-17.05
-22.69
-27.91
-32.91
-37.96
-43.43
-49.59
-56.40
-63.34
-69.43
-73.28
-73.47
-68.97
-59.49
-45.63
-28.77
-10.84
6.22
20.83
32.09
39.80
44.13
45.48
44.22
40.77
35.80
30.31
25.56
22.71
22.35
24.31
27.76
31.58
34.81
36.97
38.10
38.51
38.42
37.82
36.45
33.94
30.10
25.06
19.24
13.25
7.56
2.35
-2.52
-7.39
-12.58
-18.15
-23.89
-29.37
-34.15
-38.00
-40.98
-43.50
-46.17
-49.63
-54.44
-60.85
-68.67
-77.10
-84.82
-90.12
-91.25
-86.95
-76.83
-61.57
-42.76
-22.51
-2.94
14.32
28.28
38.60
45.38
48.97
49.81
48.47
45.60
42.02
38.55
35.96
34.81
35.33
37.29
40.16
43.21
45.78
47.44
48.08
47.77
46.62
44.56
41.42
37.07
31.62
25.47
19.22
13.38
8.18
3.45
-1.15
-5.94
-10.97
-16.05
-20.86
-25.14
-28.86
-32.25
-35.76
-39.92
-45.22
-51.85
-59.52
-67.30
-73.67
-76.82
-75.15
-67.81
-55.02
-38.09
-18.97
0.26
17.87
32.72
44.21
52.14
56.51
57.47
55.43
51.10
45.55
40.00
35.65
33.36
33.50
35.86
39.83
44.49
48.90
52.33
54.31
54.74
53.79
51.73
48.87
45.37
41.33
36.77
31.74
26.39
20.95
15.62
10.55
5.84
1.44
-2.70
-6.65
-10.43
-14.05
-17.50
-20.81
-24.04
-27.26
-30.55
-33.98
-37.60
-41.53
-45.96
-51.13
-57.26
-64.26
-71.54
-77.88
-81.60
-81.01
-74.99
-63.42
-47.31
-28.49
-9.11
8.93
24.35
36.46
45.03
50.08
51.75
50.40
46.60
41.26
35.51
30.51
27.23
26.21
27.48
30.57
34.69
38.95
42.52
44.83
45.58
44.67
42.20
38.39
33.55
28.12
22.50
17.07
12.01
7.29
2.78
-1.72
-6.30
-10.95
-15.56
-20.00
-24.16
-28.04
-31.73
-35.46
-39.53
-44.18
-49.36
-54.50
-58.57
-60.22
-58.28
-52.12
-42.01
-28.99
-14.61
-0.45
12.21
22.60
30.28
35.13
37.10
36.29
33.01
27.90
21.93
16.29
12.12
10.20
10.73
13.29
16.97
20.75
23.74
25.46
25.76
24.78
22.76
19.95
16.58
12.82
8.78
4.47
-0.15
-5.09
-10.30
-15.57
-20.62
-25.23
-29.36
-33.18
-37.00
-41.16
-45.82
-50.83
-55.72
-59.68
-61.78
-61.11
-57.03
-49.40
-38.67
-25.78
-11.95
1.62
13.92
24.23
32.11
37.28
39.62
39.25
36.51
32.05
26.77
21.70
17.81
15.77
15.84
17.72
20.75
24.02
26.68
28.20
28.42
27.56
25.87
23.51
20.39
16.29
11.08
4.96
-1.50
-7.60
-12.79
-16.98
-20.55
-24.17
-28.41
-33.55
-39.52
-45.97
-52.40
-58.18
-62.52
-64.49
-63.18
-58.02
-49.08
-37.08
-23.29
-9.10
4.29
16.08
25.81
33.20
38.02
40.07
39.34
36.12
31.17
25.61
20.69
17.48
16.57
17.86
20.74
24.28
27.60
30.09
31.50
31.84
31.19
29.64
27.13
23.60
19.00
13.35
6.87
-0.07
-7.01
-13.54
-19.38
-24.52
-29.18
-33.65
-38.24
-43.13
-48.41
-54.08
-59.96
-65.55
-69.96
-71.95
-70.29
-64.16
-53.57
-39.41
-23.22
-6.72
8.67
22.04
32.97
41.30
46.98
49.95
50.29
48.29
44.60
40.19
36.16
33.57
33.07
34.77
38.22
42.55
46.72
49.87
51.53
51.59
50.25
47.80
44.48
40.42
35.67
30.32
24.51
18.48
12.45
6.66
1.24
-3.79
-8.52
-13.17
-17.92
-22.82
-27.73
-32.40
-36.54
-40.02
-43.04
-45.99
-49.44
-53.87
-59.63
-66.86
-75.41
-84.70
-93.72
-100.96
-104.69
-103.35
-96.06
-82.91
-65.10
-44.57
-23.46
-3.64
13.69
28.01
39.27
47.62
53.22
56.20
56.80
55.52
53.15
50.65
48.89
48.41
49.31
51.33
53.98
56.70
59.01
60.53
60.97
60.18
58.13
54.90
50.71
45.79
40.43
34.88
29.34
23.96
18.80
13.86
9.09
4.45
-0.11
-4.61
-9.05
-13.42
-17.71
-21.86
-25.83
-29.58
-33.11
-36.53
-39.99
-43.74
-48.10
-53.46
-60.18
-68.36
-77.61
-86.90
-94.59
-98.81
-97.93
-91.06
-78.37
-61.04
-40.96
-20.23
-0.68
16.39
30.33
41.00
48.56
53.26
55.43
55.45
53.86
51.40
48.90
47.11
46.54
47.28
49.13
51.67
54.44
57.02
59.03
60.17
60.20
58.95
56.42
52.70
48.02
42.69
37.06
31.51
26.32
21.63
17.39
13.41
9.46
5.40
1.26
-2.84
-6.77
-10.51
-14.15
-17.79
-21.46
-25.10
-28.60
-31.95
-35.25
-38.71
-42.68
-47.50
-53.47
-60.73
-69.09
-77.87
-85.80
-91.27
-92.65
-88.79
-79.43
-65.26
-47.79
-28.88
-10.31
6.53
20.76
31.97
40.09
45.19
47.46
47.22
44.95
41.39
37.45
34.10
32.16
32.04
33.65
36.49
39.77
42.80
45.10
46.46
46.81
46.08
44.12
40.76
36.01
30.11
23.60
17.09
11.08
5.78
1.05
-3.36
-7.74
-12.14
-16.51
-20.72
-24.69
-28.45
-32.22
-36.27
-40.92
-46.30
-52.22
-58.01
-62.57
-64.62
-63.04
-57.35
-47.85
-35.56
-21.87
-8.12
4.63
15.78
24.91
31.74
35.94
37.31
35.89
32.18
27.09
21.85
17.69
15.47
15.52
17.50
20.68
24.14
27.14
29.25
30.35
30.53
29.85
28.28
25.70
22.02
17.27
11.73
5.85
0.11
-5.14
-9.82
-14.09
-18.30
-22.73
-27.47
-32.51
-37.76
-43.17
-48.74
-54.26
-59.19
-62.62
-63.45
-60.80
-54.38
-44.62
-32.55
-19.42
-6.32
5.94
16.79
25.73
32.22
35.79
36.25
33.86
29.41
24.05
19.03
15.40
13.77
14.25
16.45
19.64
23.01
25.85
27.73
28.51
28.21
26.86
24.46
20.95
16.40
11.08
5.40
-0.18
-5.36
-10.09
-14.57
-19.07
-23.83
-28.94
-34.40
-40.15
-46.04
-51.82
-57.01
-60.93
-62.73
-61.61
-57.02
-48.89
-37.74
-24.57
-10.66
2.76
14.70
24.49
31.79
36.44
38.42
37.92
35.36
31.47
27.20
23.55
21.35
20.99
22.40
25.09
28.33
31.41
33.71
34.89
34.81
33.49
31.12
27.89
24.00
19.62
14.87
9.82
4.50
-1.03
-6.69
-12.28
-17.60
-22.42
-26.65
-30.30
-33.62
-37.05
-41.10
-46.21
-52.44
-59.30
-65.71
-70.23
-71.41
-68.28
-60.60
-48.97
-34.60
-19.01
-3.63
10.42
22.47
32.25
39.67
44.79
47.68
48.48
47.49
45.23
42.49
40.15
38.97
39.29
40.99
43.52
46.18
48.39
49.82
50.43
50.28
49.39
47.67
44.95
41.18
36.47
31.18
25.70
20.40
15.42
10.76
6.35
2.12
-1.91
-5.70
-9.22
-12.52
-15.71
-18.97
-22.42
-26.10
-29.97
-33.91
-37.86
-41.90
-46.24
-51.24
-57.21
-64.30
-72.31
-80.55
-87.96
-93.17
-94.82
-91.87
-83.91
-71.32
-55.31
-37.57
-19.85
-3.55
10.58
22.35
31.89
39.36
44.79
48.12
49.44
49.10
47.74
46.18
45.12
45.01
45.93
47.65
49.75
51.74
53.17
53.70
53.18
51.62
49.13
45.93
42.19
38.07
33.67
29.06
24.35
19.67
15.14
10.83
6.78
2.96
-0.66
-4.14
-7.48
-10.68
-13.78
-16.84
-19.99
-23.31
-26.86
-30.65
-34.65
-38.89
-43.46
-48.52
-54.24
-60.70
-67.69
-74.66
-80.61
-84.23
-84.16
-79.40
-69.73
-55.87
-39.39
-22.22
-6.16
7.59
18.61
27.06
33.32
37.68
40.27
41.18
40.68
39.31
37.86
37.05
37.33
38.72
40.87
43.28
45.47
47.21
48.50
49.41
49.95
49.94
49.05
46.94
43.45
38.77
33.35
27.81
22.64
18.09
14.10
10.46
6.97
3.58
0.31
-2.73
-5.54
-8.26
-11.02
-13.99
-17.21
-20.64
-24.18
-27.76
-31.35
-35.08
-39.14
-43.79
-49.27
-55.57
-62.36
-68.92
-74.14
-76.75
-75.68
-70.38
-61.00
-48.41
-33.96
-19.11
-5.09
7.21
17.38
25.26
30.83
34.11
35.15
34.19
31.71
28.52
25.56
23.67
23.39
24.79
27.49
30.88
34.23
36.98
38.76
39.39
38.82
37.11
34.31
30.57
26.13
21.31
16.54
12.20
8.47
5.24
2.21
-1.04
-4.75
-8.84
-13.02
-16.85
-20.07
-22.68
-25.03
-27.60
-30.87
-35.07
-40.13
-45.63
-50.81
-54.73
-56.39
-55.00
-50.17
-42.04
-31.33
-19.11
-6.59
5.10
15.15
23.00
28.39
31.25
31.70
30.01
26.68
22.46
18.25
14.96
13.24
13.34
15.02
17.70
20.64
23.25
25.15
26.23
26.46
25.83
24.29
21.79
18.35
14.11
9.35
4.40
-0.41
-4.85
-8.83
-12.40
-15.78
-19.16
-22.70
-26.46
-30.42
-34.61
-39.18
-44.29
-49.94
-55.68
-60.56
-63.31
-62.75
-58.26
-49.95
-38.69
-25.66
-12.07
1.13
13.20
23.55
31.64
37.03
39.56
39.39
37.12
33.61
29.84
26.63
24.53
23.81
24.42
26.06
28.30
30.60
32.45
33.51
33.59
32.67
30.82
28.09
24.55
20.22
15.23
9.80
4.23
-1.25
-6.51
-11.60
-16.58
-21.48
-26.17
-30.50
-34.36
-37.89
-41.43
-45.45
-50.37
-56.38
-63.30
-70.50
-76.96
-81.39
-82.52
-79.38
-71.71
-60.02
-45.49
-29.67
-14.04
0.32
12.80
23.15
31.32
37.28
41.00
42.51
42.03
40.00
37.13
34.19
31.91
30.78
30.96
32.26
34.29
36.51
38.41
39.59
39.81
38.95
37.00
34.03
30.14
25.46
20.21
14.62
8.96
3.42
-1.91
-7.07
-12.15
-17.20
-22.17
-26.95
-31.43
-35.69
-40.03
-44.88
-50.60
-57.18
-64.07
-70.11
-73.78
-73.62
-68.67
-58.89
-45.09
-28.84
-11.88
4.26
18.50
30.29
39.39
45.70
49.15
49.81
47.99
44.34
39.88
35.70
32.78
31.66
32.42
34.62
37.61
40.65
43.16
44.78
45.39
44.97
43.52
41.03
37.44
32.73
26.99
20.41
13.32
6.13
-0.79
-7.15
-12.87
-18.02
-22.87
-27.72
-32.88
-38.55
-44.73
-51.11
-57.13
-61.93
-64.54
-64.02
-59.69
-51.37
-39.48
-25.05
-9.52
5.65
19.30
30.69
39.45
45.36
48.19
47.72
44.07
37.90
30.51
23.59
18.64
16.49
17.10
19.70
23.19
26.60
29.31
31.06
31.79
31.41
29.77
26.65
21.95
15.81
8.71
1.30
-5.74
-11.96
-17.24
-21.85
-26.20
-30.78
-35.87
-41.61
-47.97
-54.71
-61.29
-66.82
-70.13
-69.98
-65.49
-56.43
-43.44
-27.84
-11.25
4.82
19.22
31.21
40.37
46.41
49.14
48.52
44.87
38.96
31.99
25.37
20.39
17.90
18.02
20.20
23.47
26.76
29.25
30.56
30.63
29.60
27.54
24.36
19.89
14.04
6.96
-0.92
-8.98
-16.58
-23.33
-29.15
-34.30
-39.21
-44.40
-50.28
-57.06
-64.60
-72.38
-79.41
-84.33
-85.65
-82.12
-73.16
-59.13
-41.30
-21.61
-2.15
15.32
29.67
40.43
47.62
51.50
52.41
50.77
47.19
42.50
37.75
34.00
32.07
32.25
34.31
37.55
41.12
44.25
46.40
47.32
46.87
45.05
41.88
37.45
31.96
25.67
18.88
11.86
4.84
-2.00
-8.49
-14.51
-20.01
-25.05
-29.86
-34.77
-40.08
-46.02
-52.66
-59.87
-67.30
-74.21
-79.51
-81.81
-79.76
-72.47
-59.91
-43.07
-23.76
-4.15
13.83
28.89
40.45
48.54
53.45
55.48
54.91
52.11
47.69
42.62
38.10
35.23
34.67
36.39
39.72
43.59
46.94
49.01
49.47
48.39
46.00
42.56
38.24
33.10
27.20
20.64
13.65
6.59
-0.13
-6.23
-11.58
-16.35
-20.88
-25.57
-30.74
-36.52
-42.88
-49.59
-56.28
-62.30
-66.69
-68.27
-65.93
-59.00
-47.60
-32.73
-16.03
0.65
15.71
28.08
37.25
43.11
45.69
45.13
41.75
36.19
29.56
23.25
18.65
16.65
17.45
20.44
24.52
28.53
31.58
33.26
33.54
32.61
30.65
27.73
23.82
18.89
13.03
6.51
-0.30
-6.96
-13.17
-18.76
-23.77
-28.37
-32.77
-37.19
-41.83
-46.87
-52.45
-58.49
-64.58
-69.88
-73.20
-73.21
-68.89
-59.85
-46.54
-30.26
-12.74
4.16
18.93
30.55
38.60
43.03
44.08
42.19
37.99
32.40
26.55
21.66
18.78
18.44
20.53
24.29
28.57
32.15
34.12
34.12
32.36
29.36
25.70
21.65
17.18
12.06
6.17
-0.29
-6.90
-13.18
-18.91
-24.25
-29.53
-35.10
-41.07
-47.31
-53.48
-59.21
-64.00
-67.23
-68.08
-65.71
-59.58
-49.68
-36.65
-21.64
-5.97
9.11
22.60
33.68
41.69
46.16
46.94
44.35
39.28
33.00
26.97
22.45
20.17
20.25
22.19
25.14
28.14
30.44
31.60
31.51
30.22
27.82
24.35
19.73
13.96
7.22
-0.13
-7.49
-14.31
-20.19
-25.05
-29.17
-33.06
-37.26
-42.24
-48.21
-55.11
-62.46
-69.38
-74.61
-76.70
-74.41
-67.04
-54.75
-38.61
-20.35
-1.88
15.11
29.47
40.72
48.84
54.07
56.74
57.19
55.76
52.98
49.54
46.28
43.99
43.20
43.97
45.90
48.24
50.16
51.03
50.51
48.58
45.42
41.21
36.11
30.25
23.80
17.02
10.22
3.65
-2.58
-8.53
-14.36
-20.17
-25.95
-31.51
-36.58
-41.03
-44.95
-48.77
-53.12
-58.69
-65.89
-74.59
-83.81
-91.92
-96.80
-96.49
-89.82
-76.79
-58.71
-37.77
-16.43
3.27
20.12
33.77
44.41
52.35
57.74
60.60
61.02
59.44
56.70
53.91
52.05
51.57
52.35
53.82
55.28
56.26
56.58
56.24
55.26
53.57
50.95
47.21
42.30
36.34
29.64
22.66
15.87
9.72
4.39
-0.17
-4.27
-8.39
-12.88
-17.86
-23.12
-28.25
-32.88
-36.85
-40.31
-43.68
-47.49
-52.22
-58.28
-65.79
-74.51
-83.69
-91.98
-97.62
-98.84
-94.34
-83.76
-67.86
-48.36
-27.49
-7.33
10.56
25.35
36.89
45.39
51.17
54.50
55.64
54.93
52.95
50.47
48.33
47.22
47.47
48.96
51.21
53.60
55.61
56.89
57.28
56.71
55.16
52.55
48.90
44.31
39.05
33.45
27.83
22.40
17.21
12.21
7.40
2.81
-1.41
-5.18
-8.57
-11.81
-15.24
-19.06
-23.28
-27.66
-31.92
-35.89
-39.66
-43.52
-47.88
-53.05
-59.20
-66.34
-74.22
-82.29
-89.51
-94.40
-95.30
-90.82
-80.43
-64.75
-45.45
-24.81
-5.07
12.16
26.02
36.35
43.39
47.49
49.01
48.40
46.26
43.39
40.69
38.97
38.71
39.93
42.26
45.06
47.72
49.79
51.03
51.41
50.93
49.57
47.15
43.51
38.54
32.38
25.52
18.60
12.34
7.19
3.17
-0.09
-3.16
-6.54
-10.47
-14.87
-19.49
-24.04
-28.38
-32.56
-36.75
-41.24
-46.29
-51.97
-58.02
-63.73
-68.02
-69.74
-67.98
-62.33
-53.00
-40.74
-26.58
-11.72
2.66
15.47
25.79
32.99
36.86
37.46
35.21
30.83
25.31
19.83
15.62
13.65
14.27
17.13
21.28
25.54
28.93
30.84
31.15
30.07
27.91
25.01
21.61
17.88
13.84
9.45
4.62
-0.65
-6.18
-11.72
-16.94
-21.66
-25.88
-29.78
-33.63
-37.67
-42.05
-46.73
-51.37
-55.39
-57.92
-58.03
-54.96
-48.41
-38.67
-26.58
-13.33
-0.15
11.85
21.83
29.21
33.62
34.91
33.23
29.09
23.41
17.40
12.28
9.07
8.23
9.58
12.46
15.97
19.31
21.95
23.65
24.29
23.80
22.09
19.06
14.81
9.59
3.77
-2.25
-8.20
-13.97
-19.57
-25.04
-30.44
-35.80
-41.23
-46.88
-52.81
-58.81
-64.22
-68.00
-68.94
-66.07
-58.99
-48.13
-34.56
-19.67
-4.81
8.94
20.88
30.47
37.24
40.85
41.12
38.36
33.30
27.08
20.95
16.01
12.99
12.09
13.09
15.46
18.49
21.53
24.11
25.87
26.52
25.77
23.30
18.92
12.68
5.07
-3.03
-10.67
-17.14
-22.30
-26.57
-30.74
-35.62
-41.79
-49.38
-58.01
-66.76
-74.33
-79.12
-79.68
-75.03
-65.01
-50.45
-32.92
-14.32
3.51
19.27
32.22
42.16
49.14
53.41
55.21
54.83
52.67
49.32
45.51
42.07
39.66
38.64
39.01
40.38
42.21
43.95
45.11
45.36
44.45
42.24
38.69
33.91
28.09
21.51
14.44
7.12
-0.24
-7.47
-14.40
-20.92
-26.98
-32.61
-37.97
-43.27
-48.82
-54.97
-62.08
-70.31
-79.41
-88.50
-96.06
-100.20
-99.18
-92.00
-78.70
-60.44
-39.18
-17.12
3.78
22.15
37.29
49.03
57.51
62.99
65.76
66.20
64.78
62.15
59.12
56.47
54.81
54.42
55.26
56.97
59.05
60.91
62.02
61.95
60.36
57.12
52.26
45.99
38.64
30.63
22.38
14.29
6.66
-0.41
-6.97
-13.22
-19.39
-25.59
-31.77
-37.71
-43.19
-48.13
-52.82
-57.79
-63.74
-71.12
-79.79
-88.75
-96.26
-100.16
-98.60
-90.61
-76.41
-57.43
-35.82
-13.85
6.64
24.43
38.99
50.18
58.02
62.64
64.25
63.29
60.50
56.86
53.42
51.06
50.28
51.06
52.98
55.34
57.42
58.74
59.06
58.41
56.95
54.82
52.02
48.44
43.94
38.43
32.10
25.30
18.51
12.17
6.47
1.35
-3.41
-8.11
-12.95
-17.92
-22.90
-27.68
-32.15
-36.26
-40.10
-43.82
-47.66
-51.92
-56.91
-62.93
-70.09
-78.18
-86.44
-93.59
-97.98
-97.97
-92.42
-81.06
-64.63
-44.79
-23.61
-3.12
15.13
30.24
41.91
50.17
55.17
57.12
56.36
53.49
49.40
45.21
42.01
40.53
40.97
43.04
46.10
49.41
52.35
54.46
55.51
55.40
54.12
51.74
48.39
44.19
39.30
33.86
28.09
22.23
16.58
11.42
6.86
2.88
-0.74
-4.31
-8.01
-11.94
-16.00
-20.03
-23.84
-27.39
-30.75
-34.10
-37.70
-41.79
-46.61
-52.34
-59.00
-66.32
-73.62
-79.72
-83.13
-82.42
-76.69
-65.91
-50.96
-33.47
-15.33
1.80
16.72
28.80
37.76
43.53
46.13
45.72
42.75
38.04
32.73
28.04
24.94
23.90
24.82
27.15
30.19
33.34
36.24
38.69
40.54
41.55
41.35
39.63
36.22
31.29
25.32
18.99
12.97
7.74
3.41
-0.22
-3.66
-7.35
-11.56
-16.24
-21.05
-25.54
-29.39
-32.57
-35.34
-38.18
-41.66
-46.20
-51.94
-58.62
-65.49
-71.37
-74.85
-74.64
-69.91
-60.57
-47.35
-31.57
-14.84
1.31
15.66
27.38
36.01
41.42
43.68
43.10
40.17
35.65
30.53
25.89
22.74
21.65
22.70
25.34
28.73
31.97
34.47
35.99
36.57
36.29
35.14
32.99
29.72
25.40
20.31
14.83
9.35
4.03
-1.17
-6.45
-12.02
-17.90
-23.84
-29.42
-34.16
-37.83
-40.57
-42.88
-45.54
-49.30
-54.61
-61.41
-69.12
-76.65
-82.63
-85.62
-84.41
-78.28
-67.31
-52.35
-34.90
-16.71
0.61
15.91
28.54
38.23
44.88
48.46
49.06
47.05
43.13
38.36
33.90
30.71
29.30
29.70
31.51
34.18
37.16
40.08
42.69
44.72
45.86
45.70
43.93
40.47
35.51
29.55
23.19
16.95
11.07
5.54
0.16
-5.30
-10.96
-16.76
-22.47
-27.81
-32.58
-36.82
-40.81
-45.05
-50.09
-56.25
-63.37
-70.62
-76.62
-79.70
-78.42
-72.04
-60.75
-45.68
-28.53
-11.10
5.11
19.11
30.44
38.96
44.62
47.46
47.52
45.06
40.66
35.28
30.10
26.28
24.60
25.27
27.88
31.59
35.44
38.66
40.81
41.78
41.63
40.39
38.03
34.50
29.78
24.08
17.75
11.17
4.67
-1.62
-7.69
-13.57
-19.32
-24.92
-30.37
-35.74
-41.19
-46.89
-52.89
-58.95
-64.45
-68.39
-69.61
-67.04
-60.08
-48.84
-34.23
-17.76
-1.15
14.05
26.80
36.56
43.18
46.65
47.03
44.50
39.54
33.02
26.17
20.27
16.38
15.08
16.27
19.35
23.36
27.30
30.38
32.18
32.57
31.62
29.42
25.97
21.26
15.37
8.62
1.49
-5.45
-11.78
-17.41
-22.56
-27.65
-33.10
-39.15
-45.82
-52.89
-59.89
-66.08
-70.51
-72.12
-70.03
-63.74
-53.42
-39.87
-24.36
-8.31
6.94
20.34
31.14
38.86
43.17
43.97
41.47
36.31
29.56
22.54
16.58
12.68
11.27
12.13
14.67
18.10
21.77
25.21
28.05
29.94
30.42
29.02
25.44
19.74
12.44
4.43
-3.32
-10.04
-15.51
-19.99
-24.14
-28.70
-34.28
-41.08
-48.90
-57.11
-64.70
-70.43
-72.97
-71.19
-64.50
-53.10
-38.01
-20.83
-3.33
12.99
27.05
38.25
46.26
50.87
52.02
49.94
45.23
38.91
32.21
26.33
22.11
19.93
19.69
20.92
23.02
25.41
27.65
29.43
30.47
30.43
28.94
25.65
20.39
13.35
5.07
-3.67
-12.10
-19.71
-26.38
-32.40
-38.33
-44.75
-52.05
-60.19
-68.49
-75.77
-80.47
-81.11
-76.71
-67.06
-52.83
-35.32
-16.24
2.68
19.93
34.32
45.06
51.75
54.33
53.12
48.77
42.31
35.06
28.50
23.90
22.01
22.87
25.75
29.53
33.11
35.74
37.18
37.51
36.81
34.93
31.55
26.36
19.33
10.91
1.92
-6.73
-14.41
-20.93
-26.62
-32.13
-38.14
-45.15
-53.32
-62.34
-71.49
-79.57
-85.09
-86.48
-82.53
-72.78
-57.75
-38.88
-18.14
2.48
21.44
37.76
50.90
60.56
66.57
68.89
67.85
64.20
59.11
53.86
49.61
47.10
46.55
47.71
49.98
52.67
55.08
56.64
57.03
56.05
53.59
49.58
44.03
37.09
29.14
20.82
12.79
5.56
-0.78
-6.54
-12.22
-18.30
-24.93
-31.91
-38.77
-45.02
-50.31
-54.67
-58.49
-62.52
-67.64
-74.61
-83.69
-94.37
-105.14
-113.76
-117.73
-115.00
-104.67
-87.32
-64.86
-39.98
-15.42
6.76
25.43
40.33
51.72
59.95
65.30
67.93
68.14
66.46
63.71
60.88
58.78
57.96
58.42
59.81
61.52
62.94
63.58
63.22
61.81
59.39
56.00
51.57
46.01
39.27
31.45
22.85
13.94
5.23
-2.85
-10.01
-16.14
-21.30
-25.76
-29.90
-34.28
-39.45
-45.87
-53.72
-62.73
-71.98
-79.97
-84.80
-84.61
-78.19
-65.41
-47.41
-26.32
-4.65
15.38
32.30
45.50
54.95
60.89
63.61
63.37
60.63
56.13
50.87
46.00
42.48
40.84
41.05
42.63
44.80
46.87
48.42
49.32
49.59
49.10
47.54
44.41
39.36
32.50
24.41
16.02
8.24
1.58
-3.97
-8.82
-13.49
-18.31
-23.32
-28.29
-32.94
-37.13
-40.95
-44.78
-49.11
-54.45
-60.99
-68.49
-76.13
-82.65
-86.52
-86.31
-81.09
-70.68
-55.79
-37.85
-18.69
-0.08
16.63
30.60
41.40
48.83
52.77
53.24
50.58
45.59
39.51
33.81
29.75
28.06
28.79
31.40
34.95
38.47
41.14
42.43
42.18
40.47
37.52
33.58
28.79
23.28
17.20
10.83
4.51
-1.44
-6.85
-11.81
-16.53
-21.30
-26.29
-31.53
-36.98
-42.61
-48.41
-54.34
-60.12
-65.15
-68.50
-69.10
-66.05
-58.98
-48.16
-34.55
-19.49
-4.42
9.46
21.31
30.62
37.11
40.55
40.88
38.27
33.35
27.19
21.16
16.56
14.30
14.66
17.25
21.23
25.57
29.34
31.91
32.95
32.40
30.38
27.06
22.63
17.32
11.41
5.28
-0.69
-6.22
-11.27
-16.00
-20.69
-25.62
-30.93
-36.61
-42.53
-48.59
-54.56
-60.10
-64.53
-66.98
-66.47
-62.31
-54.32
-43.01
-29.46
-15.06
-1.13
11.29
21.62
29.57
34.93
37.54
37.30
34.37
29.40
23.52
18.09
14.29
12.72
13.29
15.35
18.08
20.75
22.93
24.40
25.03
24.61
22.92
19.78
15.18
9.42
2.97
-3.56
-9.63
-14.96
-19.58
-23.80
-28.16
-33.14
-39.06
-45.87
-53.12
-60.00
-65.39
-68.12
-67.16
-61.96
-52.63
-39.95
-25.25
-10.01
4.38
16.97
27.21
34.92
40.08
42.82
43.35
42.02
39.34
35.99
32.66
30.01
28.50
28.32
29.37
31.29
33.58
35.68
37.08
37.43
36.48
34.18
30.63
26.06
20.82
15.22
9.49
3.73
-2.07
-7.84
-13.46
-18.71
-23.45
-27.66
-31.54
-35.37
-39.47
-44.10
-49.50
-55.84
-63.06
-70.66
-77.57
-82.18
-82.83
-78.39
-68.73
-54.84
-38.47
-21.56
-5.69
8.18
19.68
28.84
35.81
40.73
43.71
44.93
44.68
43.41
41.70
40.12
39.11
38.87
39.31
40.16
41.06
41.77
42.17
42.16
41.70
40.59
38.63
35.64
31.57
26.59
21.02
15.27
9.69
4.50
-0.30
-4.85
-9.38
-14.06
-18.89
-23.71
-28.25
-32.31
-35.85
-39.16
-42.75
-47.21
-52.96
-59.97
-67.60
-74.68
-79.68
-81.16
-78.14
-70.38
-58.38
-43.32
-26.68
-10.01
5.37
18.51
28.90
36.40
41.17
43.51
43.78
42.43
40.03
37.32
35.12
34.09
34.53
36.23
38.60
40.91
42.63
43.53
43.66
43.16
42.03
40.14
37.29
33.43
28.74
23.59
18.46
13.69
9.44
5.63
2.01
-1.69
-5.71
-10.06
-14.59
-19.00
-23.02
-26.50
-29.58
-32.62
-36.12
-40.51
-45.96
-52.25
-58.70
-64.23
-67.55
-67.47
-63.27
-54.90
-43.10
-29.18
-14.69
-0.99
10.96
20.69
28.07
33.13
35.99
36.79
35.82
33.56
30.64
27.82
25.74
24.83
25.21
26.69
28.87
31.32
33.66
35.58
36.85
37.21
36.40
34.24
30.78
26.34
21.44
16.64
12.28
8.41
4.82
1.19
-2.72
-6.97
-11.42
-15.81
-19.91
-23.60
-26.95
-30.21
-33.78
-38.09
-43.38
-49.51
-55.81
-61.11
-64.04
-63.41
-58.60
-49.79
-37.93
-24.42
-10.77
1.78
12.42
20.75
26.64
30.06
31.05
29.74
26.55
22.21
17.74
14.19
12.36
12.45
14.09
16.46
18.74
20.36
21.20
21.46
21.41
21.10
20.30
18.61
15.70
11.53
6.39
0.85
-4.52
-9.30
-13.42
-17.08
-20.66
-24.52
-28.90
-33.86
-39.27
-44.81
-50.00
-54.22
-56.78
-57.03
-54.52
-49.12
-41.08
-31.02
-19.78
-8.27
2.70
12.47
20.57
26.61
30.24
31.25
29.65
25.87
20.79
15.62
11.52
9.29
9.14
10.70
13.33
16.31
19.06
21.23
22.53
22.72
21.61
19.14
15.40
10.72
5.57
0.45
-4.23
-8.30
-11.86
-15.28
-19.02
-23.51
-28.97
-35.35
-42.28
-49.16
-55.20
-59.46
-61.01
-59.13
-53.55
-44.53
-32.91
-19.84
-6.55
5.89
16.69
25.29
31.35
34.74
35.53
34.03
30.78
26.44
21.77
17.52
14.32
12.63
12.59
14.01
16.40
19.23
21.96
24.16
25.47
25.48
23.81
20.21
14.79
8.06
0.83
-6.06
-12.10
-17.22
-21.86
-26.65
-32.20
-38.85
-46.45
-54.31
-61.27
-65.91
-66.88
-63.28
-54.96
-42.57
-27.39
-11.04
4.97
19.44
31.60
41.01
47.45
50.84
51.24
48.92
44.49
38.93
33.50
29.45
27.61
28.13
30.44
33.46
36.07
37.49
37.48
36.30
34.36
31.93
29.02
25.34
20.53
14.40
7.08
-1.02
-9.26
-17.07
-24.11
-30.33
-36.00
-41.58
-47.53
-54.23
-61.78
-69.85
-77.64
-83.81
-86.77
-85.07
-77.84
-65.15
-48.04
-28.23
-7.66
11.90
29.12
43.17
53.64
60.44
63.78
64.11
62.13
58.74
54.85
51.40
49.12
48.43
49.32
51.37
53.88
56.11
57.53
57.89
57.21
55.51
52.79
48.94
43.86
37.67
30.68
23.36
16.13
9.22
2.63
-3.79
-10.22
-16.76
-23.36
-29.83
-35.86
-41.18
-45.68
-49.55
-53.36
-57.90
-63.92
-71.74
-80.88
-89.93
-96.85
-99.38
-95.85
-85.65
-69.46
-49.08
-26.88
-5.18
14.30
30.57
43.33
52.61
58.56
61.40
61.48
59.34
55.80
51.82
48.32
45.99
45.18
45.80
47.47
49.61
51.62
53.01
53.50
53.00
51.53
49.06
45.53
40.86
35.09
28.56
21.87
15.66
10.36
5.98
2.09
-1.98
-6.74
-12.36
-18.52
-24.66
-30.22
-34.88
-38.71
-42.08
-45.55
-49.76
-55.23
-62.11
-69.99
-77.76
-83.70
-85.85
-82.64
-73.41
-58.68
-40.08
-19.83
-0.14
17.29
31.51
42.24
49.58
53.78
55.13
53.96
50.86
46.62
42.26
38.75
36.73
36.39
37.42
39.26
41.27
43.05
44.40
45.31
45.74
45.52
44.37
41.94
38.00
32.56
25.97
18.87
12.04
6.13
1.49
-2.00
-4.79
-7.47
-10.53
-14.13
-18.21
-22.52
-26.75
-30.75
-34.47
-38.02
-41.61
-45.54
-50.10
-55.51
-61.67
-68.04
-73.62
-77.08
-77.05
-72.53
-63.25
-49.75
-33.34
-15.77
1.25
16.27
28.41
37.22
42.62
44.70
43.77
40.38
35.38
29.84
24.85
21.37
19.94
20.70
23.29
27.08
31.14
34.57
36.63
36.98
35.69
33.16
29.94
26.42
22.77
18.94
14.81
10.34
5.53
0.48
-4.70
-9.82
-14.68
-19.03
-22.69
-25.67
-28.20
-30.70
-33.63
-37.39
-42.22
-48.03
-54.34
-60.16
-64.12
-64.76
-61.00
-52.59
-40.23
-25.43
-9.99
4.48
16.85
26.51
33.25
37.01
37.89
36.16
32.35
27.28
21.98
17.45
14.50
13.49
14.32
16.45
19.19
21.88
24.09
25.63
26.42
26.40
25.41
23.30
20.05
15.79
10.83
5.52
0.11
-5.25
-10.50
-15.62
-20.57
-25.30
-29.77
-34.02
-38.16
-42.36
-46.93
-52.20
-58.37
-65.26
-72.15
-77.73
-80.37
-78.66
-71.86
-60.26
-45.10
-28.18
-11.40
3.73
16.26
25.84
32.50
36.48
38.10
37.69
35.68
32.54
28.91
25.48
22.87
21.53
21.60
23.00
25.34
28.20
31.07
33.48
35.01
35.33
34.25
31.74
27.94
23.13
17.74
12.18
6.75
1.62
-3.27
-8.07
-12.97
-18.00
-23.03
-27.82
-32.13
-35.90
-39.31
-42.81
-46.93
-52.10
-58.37
-65.29
-71.80
-76.45
-77.73
-74.50
-66.33
-53.70
-37.83
-20.35
-2.90
13.14
26.81
37.54
45.03
49.26
50.37
48.81
45.20
40.43
35.45
31.22
28.46
27.57
28.53
30.94
34.14
37.40
40.08
41.76
42.23
41.42
39.36
36.16
31.95
26.92
21.26
15.17
8.85
2.50
-3.69
-9.58
-15.08
-20.18
-24.98
-29.61
-34.28
-39.24
-44.74
-50.95
-57.74
-64.47
-70.02
-72.88
-71.66
-65.57
-54.65
-39.88
-22.85
-5.29
11.24
25.59
37.09
45.41
50.44
52.25
51.07
47.36
41.86
35.58
29.73
25.41
23.33
23.67
26.05
29.69
33.71
37.32
39.90
41.08
40.65
38.67
35.34
31.04
26.11
20.79
15.16
9.21
3.03
-3.24
-9.44
-15.46
-21.32
-27.08
-32.76
-38.32
-43.66
-48.79
-53.83
-58.85
-63.69
-67.66
-69.70
-68.59
-63.36
-53.75
-40.27
-24.10
-6.79
10.05
25.03
37.05
45.41
49.74
50.04
46.70
40.49
32.66
24.68
18.09
14.05
13.08
14.88
18.52
22.79
26.62
29.35
30.79
31.01
30.18
28.34
25.44
21.38
16.18
10.04
3.36
-3.42
-9.94
-16.16
-22.31
-28.81
-35.99
-43.99
-52.58
-61.16
-68.83
-74.46
-76.84
-74.93
-68.07
-56.38
-40.75
-22.75
-4.15
13.46
28.97
41.74
51.39
57.59
60.04
58.65
53.74
46.15
37.24
28.60
21.65
17.37
16.04
17.20
19.93
23.13
25.94
27.90
28.95
29.14
28.41
26.48
22.96
17.64
10.75
2.88
-5.19
-12.81
-19.70
-25.92
-31.83
-37.91
-44.63
-52.34
-61.13
-70.70
-80.23
-88.39
-93.52
-94.03
-88.78
-77.47
-60.80
-40.37
-18.28
3.32
22.70
38.74
50.95
59.25
63.68
64.37
61.57
55.86
48.28
40.23
33.19
28.37
26.39
27.17
30.06
34.03
38.06
41.33
43.38
44.13
43.69
42.11
39.25
34.82
28.61
20.75
11.82
2.72
-5.72
-13.01
-19.19
-24.73
-30.22
-36.20
-43.01
-50.72
-59.19
-67.92
-75.98
-82.04
-84.53
-82.06
-73.85
-60.04
-41.77
-20.97
0.11
19.44
35.55
47.72
55.86
60.23
61.22
59.17
54.52
47.98
40.64
33.80
28.73
26.23
26.44
28.89
32.73
37.04
41.06
44.25
46.27
46.92
46.00
43.38
38.99
32.93
25.50
17.17
8.57
0.33
-7.12
-13.58
-19.17
-24.22
-29.10
-34.25
-39.97
-46.49
-53.85
-61.83
-69.75
-76.48
-80.53
-80.39
-75.02
-64.14
-48.50
-29.73
-9.88
9.06
25.54
38.66
48.00
53.49
55.17
53.21
48.06
40.55
31.98
23.83
17.53
13.97
13.38
15.26
18.68
22.60
26.14
28.78
30.27
30.51
29.45
26.96
22.94
17.44
10.75
3.41
-3.92
-10.70
-16.68
-21.98
-27.04
-32.43
-38.63
-45.90
-54.02
-62.20
-69.13
-73.14
-72.67
-66.76
-55.38
-39.59
-21.15
-2.09
15.83
31.36
43.72
52.48
57.36
58.22
55.23
49.00
40.63
31.58
23.37
17.28
14.01
13.53
15.24
18.16
21.33
24.04
25.96
27.04
27.27
26.57
24.63
21.12
15.82
8.84
0.65
-8.02
-16.44
-24.08
-30.80
-36.78
-42.53
-48.63
-55.60
-63.70
-72.83
-82.35
-90.99
-97.07
-98.77
-94.62
-84.01
-67.43
-46.45
-23.31
-0.40
20.27
37.35
50.21
58.74
63.15
63.85
61.41
56.68
50.72
44.79
40.06
37.35
36.88
38.31
40.92
43.95
46.82
49.14
50.67
51.17
50.30
47.75
43.40
37.40
30.23
22.51
14.79
7.39
0.32
-6.56
-13.43
-20.32
-27.07
-33.39
-38.98
-43.71
-47.70
-51.36
-55.36
-60.41
-67.04
-75.30
-84.54
-93.33
-99.65
-101.41
-96.97
-85.72
-68.29
-46.46
-22.71
0.47
21.04
37.80
50.28
58.57
63.03
64.06
62.14
57.95
52.45
46.83
42.36
39.98
40.04
42.17
45.42
48.63
50.82
51.54
50.81
49.04
46.66
43.87
40.49
36.16
30.53
23.53
15.52
7.11
-1.01
-8.38
-14.88
-20.72
-26.30
-31.97
-38.05
-44.71
-51.99
-59.69
-67.28
-73.75
-77.69
-77.63
-72.46
-61.86
-46.49
-27.90
-8.13
10.77
27.19
40.12
49.16
54.40
56.20
55.05
51.57
46.53
40.87
35.66
31.90
30.29
30.94
33.40
36.76
40.03
42.48
43.79
43.96
43.09
41.17
38.06
33.65
28.03
21.58
14.81
8.20
1.98
-3.88
-9.55
-15.15
-20.65
-25.90
-30.76
-35.18
-39.38
-43.73
-48.67
-54.57
-61.42
-68.69
-75.23
-79.46
-79.74
-74.94
-64.89
-50.46
-33.37
-15.66
0.93
15.22
26.68
35.13
40.51
42.71
41.77
37.99
32.19
25.61
19.66
15.56
13.97
14.84
17.53
21.06
24.52
27.26
29.03
29.83
29.66
28.39
25.71
21.38
15.43
8.30
0.75
-6.41
-12.64
-17.80
-22.12
-26.06
-30.06
-34.50
-39.60
-45.44
-51.86
-58.41
-64.17
-67.94
-68.39
-64.54
-56.03
-43.38
-27.79
-10.96
5.42
19.96
31.78
40.49
46.01
48.44
47.91
44.74
39.51
33.17
26.94
22.00
19.24
18.91
20.64
23.56
26.66
29.09
30.35
30.29
29.00
26.61
23.21
18.83
13.49
7.24
0.29
-7.03
-14.28
-21.05
-27.07
-32.25
-36.76
-40.90
-45.13
-49.89
-55.57
-62.31
-69.94
-77.78
-84.66
-89.08
-89.53
-84.93
-74.97
-60.36
-42.57
-23.52
-5.08
11.32
24.86
35.25
42.54
46.95
48.75
48.28
46.09
42.93
39.68
37.20
36.06
36.41
38.02
40.39
42.99
45.41
47.39
48.74
49.23
48.55
46.36
42.51
37.10
30.56
23.57
16.79
10.68
5.37
0.63
-3.93
-8.66
-13.68
-18.84
-23.79
-28.24
-32.09
-35.56
-39.12
-43.34
-48.68
-55.28
-62.76
-70.20
-76.23
-79.28
-78.02
-71.73
-60.55
-45.52
-28.24
-10.46
6.31
21.04
33.16
42.38
48.57
51.75
52.11
50.12
46.62
42.69
39.38
37.54
37.55
39.24
42.03
45.14
47.89
49.80
50.71
50.61
49.60
47.74
45.02
41.38
36.84
31.46
25.50
19.33
13.38
8.06
3.57
-0.14
-3.35
-6.42
-9.67
-13.21
-16.93
-20.58
-23.97
-26.99
-29.75
-32.50
-35.59
-39.38
-44.14
-49.99
-56.72
-63.81
-70.29
-74.89
-76.31
-73.48
-65.97
-54.19
-39.33
-23.06
-7.08
7.26
19.22
28.53
35.18
39.21
40.65
39.69
36.83
32.95
29.16
26.47
25.51
26.38
28.68
31.74
34.90
37.65
39.69
40.90
41.16
40.38
38.39
35.09
30.54
25.02
19.03
13.15
7.84
3.30
-0.63
-4.25
-7.92
-11.83
-15.96
-20.18
-24.30
-28.24
-32.03
-35.80
-39.75
-44.01
-48.52
-52.88
-56.33
-57.87
-56.55
-51.84
-43.83
-33.27
-21.30
-9.11
2.34
12.39
20.57
26.49
29.81
30.35
28.24
24.11
18.99
14.14
10.72
9.51
10.71
13.89
18.17
22.44
25.76
27.58
27.81
26.78
24.89
22.47
19.62
16.25
12.23
7.53
2.31
-3.18
-8.62
-13.75
-18.51
-22.93
-27.13
-31.24
-35.39
-39.72
-44.34
-49.30
-54.40
-59.04
-62.27
-62.90
-59.98
-53.11
-42.67
-29.76
-15.84
-2.26
9.97
20.25
28.32
34.02
37.30
38.26
37.18
34.61
31.33
28.13
25.76
24.73
25.28
27.29
30.33
33.76
36.86
39.01
39.83
39.25
37.46
34.79
31.62
28.22
24.75
21.21
17.53
13.60
9.37
4.86
0.21
-4.43
-8.89
-13.05
-16.90
-20.46
-23.77
-26.86
-29.81
-32.68
-35.57
-38.61
-41.95
-45.71
-50.08
-55.20
-61.16
-67.85
-74.82
-81.26
-85.95
-87.55
-84.98
-77.74
-66.19
-51.50
-35.31
-19.22
-4.42
8.52
19.48
28.42
35.20
39.50
41.07
40.06
37.15
33.48
30.33
28.71
29.02
31.17
34.57
38.50
42.27
45.36
47.44
48.36
48.15
46.84
44.51
41.22
37.03
32.18
27.02
21.98
17.43
13.51
10.02
6.60
2.81
-1.60
-6.56
-11.69
-16.48
-20.44
-23.36
-25.38
-26.99
-28.89
-31.78
-36.10
-41.98
-49.18
-57.13
-64.97
-71.63
-75.85
-76.44
-72.57
-64.09
-51.69
-36.72
-20.85
-5.62
7.92
19.20
28.06
34.45
38.40
39.95
39.34
37.14
34.16
31.37
29.65
29.48
30.87
33.40
36.39
39.24
41.60
43.35
44.55
45.16
44.97
43.65
40.99
37.00
32.02
26.60
21.28
16.39
12.03
8.08
4.34
0.65
-3.05
-6.76
-10.45
-14.09
-17.75
-21.50
-25.46
-29.75
-34.51
-39.83
-45.74
-52.00
-58.03
-62.88
-65.36
-64.40
-59.37
-50.36
-38.23
-24.33
-10.14
3.08
14.46
23.55
30.14
34.19
35.75
35.03
32.39
28.47
24.06
20.11
17.41
16.50
17.45
19.88
23.12
26.37
29.00
30.59
30.98
30.16
28.23
25.34
21.70
17.58
13.25
8.84
4.39
-0.17
-4.90
-9.78
-14.69
-19.48
-24.01
-28.23
-32.21
-36.12
-40.13
-44.40
-48.86
-53.14
-56.49
-57.93
-56.44
-51.36
-42.61
-30.78
-16.95
-2.39
11.59
23.90
33.73
40.55
44.13
44.59
42.34
38.08
32.68
27.13
22.40
19.35
18.47
19.78
22.78
26.58
30.17
32.75
33.87
33.48
31.78
29.04
25.53
21.41
16.81
11.76
6.31
0.47
-5.70
-12.06
-18.37
-24.36
-29.83
-34.72
-39.15
-43.37
-47.66
-52.34
-57.66
-63.72
-70.25
-76.47
-81.13
-82.73
-79.97
-72.24
-59.90
-44.25
-27.12
-10.29
4.92
17.80
28.16
36.01
41.33
44.06
44.25
42.24
38.76
34.85
31.56
29.74
29.72
31.37
34.21
37.55
40.72
43.13
44.40
44.31
42.84
40.09
36.26
31.58
26.24
20.45
14.40
8.29
2.27
-3.52
-9.05
-14.34
-19.44
-24.37
-29.14
-33.79
-38.51
-43.59
-49.27
-55.51
-61.75
-66.89
-69.53
-68.33
-62.48
-51.98
-37.76
-21.36
-4.60
10.93
24.08
34.28
41.40
45.58
47.10
46.30
43.71
40.08
36.29
33.22
31.50
31.34
32.52
34.59
37.00
39.33
41.25
42.51
42.91
42.32
40.68
37.97
34.30
29.73
24.41
18.48
12.19
5.83
-0.27
-5.87
-10.87
-15.27
-19.25
-22.98
-26.67
-30.56
-34.90
-39.87
-45.50
-51.49
-57.14
-61.41
-63.04
-60.95
-54.59
-44.20
-30.80
-15.92
-1.14
12.28
23.60
32.50
38.86
42.57
43.60
42.07
38.48
33.69
28.81
24.92
22.74
22.52
23.95
26.37
29.01
31.22
32.64
33.17
32.89
31.87
30.03
27.19
23.21
18.08
12.09
5.73
-0.49
-6.19
-11.26
-15.82
-20.11
-24.40
-28.86
-33.59
-38.62
-43.89
-49.17
-53.96
-57.46
-58.72
-56.83
-51.32
-42.34
-30.68
-17.56
-4.28
8.01
18.49
26.65
32.20
35.02
35.16
32.93
28.91
24.00
19.22
15.51
13.52
13.47
15.07
17.69
20.59
23.10
24.82
25.61
25.50
24.50
22.55
19.52
15.32
10.02
3.95
-2.37
-8.40
-13.74
-18.20
-21.93
-25.27
-28.65
-32.49
-37.05
-42.33
-48.02
-53.48
-57.76
-59.78
-58.55
-53.52
-44.66
-32.68
-18.78
-4.43
8.97
20.35
29.14
35.14
38.42
39.14
37.55
34.07
29.44
24.66
20.81
18.75
18.78
20.56
23.32
26.16
28.40
29.74
30.18
29.83
28.72
26.81
23.93
20.00
15.08
9.35
3.10
-3.30
-9.55
-15.39
-20.67
-25.37
-29.57
-33.46
-37.36
-41.62
-46.64
-52.60
-59.28
-65.97
-71.45
-74.29
-73.24
-67.71
-57.84
-44.56
-29.29
-13.57
1.23
14.14
24.60
32.43
37.69
40.61
41.49
40.74
38.89
36.57
34.44
33.04
32.70
33.38
34.82
36.65
38.53
40.18
41.40
41.97
41.60
40.02
37.11
32.90
27.69
21.96
16.14
10.59
5.42
0.54
-4.23
-9.07
-14.01
-18.92
-23.58
-27.75
-31.32
-34.40
-37.25
-40.29
-43.98
-48.70
-54.61
-61.44
-68.37
-74.09
-77.05
-75.91
-70.00
-59.57
-45.73
-30.06
-14.19
0.60
13.51
24.16
32.44
38.31
41.80
43.07
42.46
40.56
38.15
36.07
34.99
35.20
36.58
38.65
40.78
42.47
43.45
43.78
43.61
43.01
41.90
39.99
36.96
32.70
27.42
21.63
16.03
11.15
7.22
4.00
0.98
-2.39
-6.39
-10.92
-15.55
-19.80
-23.38
-26.34
-29.00
-31.81
-35.23
-39.60
-45.08
-51.51
-58.30
-64.35
-68.23
-68.55
-64.43
-55.84
-43.57
-28.99
-13.64
1.12
14.28
25.11
33.18
38.23
40.28
39.70
37.21
33.74
30.33
27.85
26.87
27.50
29.46
32.15
34.92
37.25
38.92
39.98
40.58
40.79
40.49
39.45
37.36
34.06
29.63
24.40
18.88
13.56
8.79
4.65
0.99
-2.46
-5.95
-9.57
-13.20
-16.65
-19.75
-22.48
-25.04
-27.79
-31.09
-35.21
-40.26
-46.12
-52.38
-58.35
-63.09
-65.55
-64.82
-60.39
-52.37
-41.42
-28.66
-15.35
-2.68
8.50
17.58
24.28
28.47
30.22
29.80
27.68
24.55
21.19
18.34
16.60
16.24
17.23
19.27
21.94
24.74
27.28
29.23
30.35
30.44
29.37
27.10
23.71
19.42
14.55
9.46
4.46
-0.23
-4.52
-8.44
-12.10
-15.60
-19.08
-22.60
-26.19
-29.88
-33.69
-37.69
-41.95
-46.45
-50.95
-54.89
-57.43
-57.61
-54.71
-48.49
-39.34
-28.18
-16.15
-4.29
6.62
16.09
23.79
29.37
32.48
32.94
30.85
26.81
21.81
17.00
13.42
11.71
11.98
13.82
16.55
19.40
21.77
23.29
23.82
23.34
21.85
19.35
15.83
11.41
6.30
0.84
-4.65
-9.93
-14.87
-19.50
-23.89
-28.20
-32.62
-37.38
-42.69
-48.59
-54.83
-60.76
-65.38
-67.56
-66.33
-61.16
-52.13
-39.91
-25.63
-10.54
4.16
17.54
28.95
37.95
44.25
47.66
48.17
46.10
42.09
37.14
32.39
28.82
27.02
27.08
28.61
30.95
33.44
35.53
36.90
37.39
36.91
35.38
32.76
29.06
24.39
18.97
13.03
6.81
0.45
-6.00
-12.50
-19.00
-25.39
-31.53
-37.29
-42.66
-47.83
-53.12
-58.95
-65.58
-72.84
-79.96
-85.62
-88.21
-86.28
-79.07
-66.74
-50.44
-31.88
-12.93
4.81
20.29
32.99
42.72
49.55
53.62
55.12
54.39
51.93
48.43
44.77
41.88
40.46
40.85
42.82
45.71
48.65
50.85
51.85
51.56
50.11
47.66
44.24
39.80
34.34
27.95
20.95
13.65
6.37
-0.72
-7.57
-14.15
-20.40
-26.18
-31.46
-36.32
-41.12
-46.38
-52.60
-60.02
-68.37
-76.76
-83.79
-87.82
-87.33
-81.40
-70.00
-54.02
-35.13
-15.30
3.69
20.56
34.68
45.86
54.05
59.21
61.30
60.45
57.22
52.51
47.44
43.11
40.24
39.13
39.62
41.27
43.56
46.03
48.23
49.77
50.35
49.62
47.34
43.42
37.99
31.44
24.35
17.34
10.88
5.08
-0.23
-5.40
-10.74
-16.34
-22.01
-27.41
-32.21
-36.28
-39.76
-43.02
-46.54
-50.82
-56.24
-63.00
-70.89
-79.14
-86.40
-90.93
-91.03
-85.55
-74.30
-58.14
-38.75
-18.19
1.64
19.29
33.90
45.02
52.48
56.22
56.37
53.38
48.15
41.95
36.25
32.29
30.78
31.65
34.19
37.37
40.20
42.04
42.70
42.26
40.94
38.84
35.95
32.13
27.26
21.34
14.52
7.08
-0.62
-8.21
-15.38
-21.93
-27.75
-32.89
-37.54
-42.02
-46.66
-51.65
-56.82
-61.56
-64.86
-65.45
-62.26
-54.76
-43.14
-28.42
-12.12
4.10
18.81
31.02
40.16
45.94
48.26
47.21
43.20
37.06
30.00
23.42
18.52
16.07
16.13
18.21
21.43
24.84
27.69
29.50
30.14
29.64
28.08
25.46
21.72
16.79
10.78
3.99
-3.10
-10.01
-16.44
-22.32
-27.88
-33.44
-39.28
-45.54
-52.19
-58.94
-65.27
-70.38
-73.27
-72.92
-68.57
-59.97
-47.50
-32.17
-15.35
1.51
17.10
30.49
41.01
48.26
51.99
52.11
48.85
42.94
35.58
28.37
22.89
20.22
20.62
23.47
27.58
31.67
34.77
36.47
36.75
35.78
33.65
30.29
25.61
19.57
12.37
4.42
-3.73
-11.63
-18.91
-25.46
-31.39
-36.93
-42.43
-48.23
-54.66
-61.85
-69.62
-77.25
-83.53
-86.87
-85.67
-78.91
-66.48
-49.39
-29.53
-9.13
9.84
26.06
38.92
48.37
54.59
57.73
57.99
55.71
51.51
46.38
41.52
38.01
36.51
37.08
39.24
42.07
44.66
46.27
46.52
45.37
42.94
39.39
34.83
29.32
22.93
15.80
8.18
0.36
-7.37
-14.74
-21.51
-27.57
-32.93
-37.75
-42.38
-47.30
-52.97
-59.67
-67.36
-75.48
-82.97
-88.36
-90.03
-86.70
-77.77
-63.61
-45.49
-25.34
-5.18
13.31
29.01
41.44
50.49
56.27
58.96
58.87
56.53
52.79
48.76
45.54
43.93
44.18
45.98
48.64
51.41
53.72
55.27
55.88
55.40
53.62
50.34
45.52
39.44
32.59
25.60
18.96
12.95
7.51
2.39
-2.78
-8.26
-14.12
-20.14
-25.92
-31.01
-35.18
-38.54
-41.58
-45.08
-49.81
-56.22
-64.29
-73.21
-81.51
-87.21
-88.35
-83.55
-72.49
-56.17
-36.55
-16.04
3.25
19.87
33.18
43.05
49.64
53.16
53.87
52.24
49.00
45.11
41.59
39.29
38.71
39.89
42.40
45.55
48.58
50.94
52.30
52.63
51.99
50.40
47.79
44.04
39.10
33.17
26.65
20.09
14.01
8.68
4.10
0.05
-3.83
-7.84
-12.05
-16.35
-20.51
-24.32
-27.75
-30.98
-34.36
-38.34
-43.25
-49.27
-56.24
-63.60
-70.38
-75.29
-76.93
-74.23
-66.70
-54.76
-39.59
-22.85
-6.30
8.64
21.06
30.51
36.92
40.38
41.05
39.25
35.55
30.76
25.95
22.18
20.29
20.60
22.89
26.44
30.30
33.62
35.79
36.54
35.91
34.07
31.18
27.37
22.69
17.30
11.44
5.50
-0.07
-4.95
-9.10
-12.72
-16.23
-20.09
-24.55
-29.58
-34.95
-40.31
-45.40
-50.09
-54.19
-57.27
-58.65
-57.49
-53.12
-45.35
-34.65
-22.02
-8.76
3.97
15.29
24.61
31.66
36.26
38.31
37.88
35.18
30.71
25.35
20.18
16.31
14.57
15.20
17.85
21.63
25.51
28.57
30.30
30.49
29.13
26.34
22.29
17.27
11.79
6.36
1.40
-2.97
-6.96
-10.92
-15.17
-19.89
-24.96
-30.11
-34.98
-39.31
-43.05
-46.46
-50.03
-54.35
-59.72
-65.83
-71.58
-75.36
-75.52
-70.97
-61.63
-48.40
-32.89
-16.83
-1.69
11.60
22.55
30.95
36.73
39.86
40.48
38.95
35.97
32.43
29.28
27.29
26.88
28.02
30.33
33.16
35.84
37.80
38.69
38.42
37.09
34.92
32.09
28.73
24.86
20.53
15.84
10.97
6.13
1.46
-3.02
-7.41
-11.81
-16.24
-20.61
-24.78
-28.64
-32.22
-35.68
-39.34
-43.52
-48.54
-54.53
-61.31
-68.24
-74.21
-77.78
-77.59
-72.75
-63.21
-49.82
-34.07
-17.71
-2.29
11.15
22.11
30.53
36.55
40.33
42.03
41.85
40.12
37.46
34.67
32.61
31.91
32.70
34.65
37.06
39.24
40.74
41.48
41.63
41.36
40.70
39.44
37.28
33.96
29.50
24.20
18.59
13.18
8.34
4.08
0.16
-3.75
-7.91
-12.31
-16.70
-20.77
-24.32
-27.39
-30.25
-33.28
-36.79
-40.96
-45.88
-51.53
-57.75
-64.08
-69.66
-73.30
-73.71
-69.90
-61.61
-49.36
-34.41
-18.40
-2.88
10.91
22.21
30.66
36.15
38.76
38.74
36.58
33.07
29.20
26.02
24.36
24.59
26.51
29.52
32.79
35.64
37.66
38.70
38.79
37.93
36.06
33.18
29.35
24.87
20.05
15.22
10.53
5.95
1.40
-3.20
-7.81
-12.31
-16.58
-20.55
-24.26
-27.82
-31.43
-35.34
-39.74
-44.65
-49.75
-54.28
-57.17
-57.30
-53.87
-46.67
-36.26
-23.74
-10.47
2.25
13.45
22.48
29.01
32.87
34.07
32.77
29.39
24.66
19.59
15.27
12.63
12.12
13.59
16.37
19.52
22.20
23.94
24.68
24.58
23.86
22.55
20.48
17.42
13.29
8.24
2.64
-3.03
-8.39
-13.21
-17.49
-21.35
-24.95
-28.48
-32.10
-35.98
-40.27
-44.97
-49.83
-54.27
-57.34
-57.98
-55.28
-48.80
-38.75
-25.98
-11.81
2.32
15.12
25.68
33.49
38.40
40.48
39.93
37.11
32.61
27.28
22.17
18.35
16.59
17.16
19.65
23.20
26.75
29.38
30.59
30.32
28.80
26.40
23.38
19.86
15.83
11.24
6.08
0.47
-5.44
-11.41
-17.23
-22.72
-27.79
-32.45
-36.82
-41.20
-45.95
-51.43
-57.73
-64.59
-71.20
-76.33
-78.55
-76.63
-69.90
-58.52
-43.51
-26.49
-9.36
6.23
19.14
28.91
35.66
39.80
41.83
42.11
40.94
38.69
35.92
33.37
31.74
31.53
32.74
34.91
37.37
39.42
40.57
40.67
39.80
38.12
35.81
32.92
29.42
25.24
20.37
14.93
9.15
3.29
-2.42
-7.86
-13.04
-17.99
-22.68
-27.00
-30.86
-34.31
-37.66
-41.43
-46.15
-52.00
-58.63
-65.02
-69.74
-71.26
-68.52
-61.15
-49.65
-35.20
-19.33
-3.58
10.85
23.18
33.05
40.35
45.12
47.47
47.61
45.95
43.12
39.98
37.39
36.05
36.28
37.93
40.49
43.24
45.56
47.05
47.64
47.47
46.76
45.59
43.87
41.34
37.75
33.04
27.38
21.24
15.21
9.83
5.42
1.99
-0.75
-3.23
-5.88
-8.97
-12.54
-16.38
-20.21
-23.78
-27.00
-30.02
-33.16
-36.81
-41.26
-46.68
-52.98
-59.70
-66.02
-70.78
-72.69
-70.62
-64.05
-53.20
-39.11
-23.27
-7.30
7.46
20.11
30.12
37.19
41.27
42.46
41.18
38.13
34.34
30.86
28.60
28.03
29.14
31.48
34.38
37.19
39.49
41.08
41.96
42.14
41.57
40.13
37.69
34.26
30.01
25.27
20.39
15.64
11.12
6.79
2.55
-1.69
-5.87
-9.85
-13.47
-16.64
-19.45
-22.16
-25.08
-28.54
-32.78
-37.90
-43.73
-49.82
-55.37
-59.32
-60.56
-58.23
-52.08
-42.52
-30.55
-17.52
-4.71
6.82
16.39
23.61
28.33
30.58
30.52
28.50
25.09
21.07
17.29
14.54
13.30
13.66
15.31
17.68
20.17
22.30
23.79
24.49
24.34
23.27
21.24
18.27
14.48
10.04
5.17
0.09
-4.95
-9.74
-14.12
-18.07
-21.74
-25.45
-29.50
-34.08
-39.23
-44.82
-50.56
-56.04
-60.58
-63.26
-63.11
-59.30
-51.58
-40.45
-27.04
-12.89
0.57
12.27
21.63
28.44
32.68
34.47
33.98
31.65
28.12
24.27
20.97
18.91
18.35
19.15
20.87
22.98
25.12
27.07
28.78
30.15
30.90
30.62
28.92
25.62
20.93
15.40
9.70
4.35
-0.45
-4.81
-9.07
-13.52
-18.26
-23.15
-27.87
-32.17
-35.96
-39.39
-42.81
-46.58
-50.98
-56.08
-61.67
-67.19
-71.76
-74.29
-73.66
-69.10
-60.45
-48.25
-33.66
-18.12
-2.95
10.83
22.56
31.81
38.30
41.84
42.56
40.92
37.79
34.26
31.37
29.81
29.87
31.38
33.88
36.80
39.60
41.88
43.47
44.27
44.25
43.34
41.43
38.42
34.37
29.50
24.21
18.92
13.96
9.43
5.25
1.20
-2.91
-7.17
-11.57
-15.97
-20.16
-23.94
-27.19
-29.99
-32.70
-35.90
-40.23
-46.09
-53.39
-61.39
-68.76
-73.89
-75.28
-71.94
-63.71
-51.26
-35.98
-19.57
-3.66
10.51
22.21
31.16
37.33
40.85
41.90
40.81
38.13
34.62
31.17
28.61
27.46
27.91
29.67
32.20
34.85
37.06
38.49
39.01
38.60
37.25
34.90
31.49
27.05
21.80
16.13
10.41
4.87
-0.39
-5.44
-10.32
-14.96
-19.29
-23.26
-27.00
-30.81
-35.06
-40.03
-45.76
-51.87
-57.63
-61.88
-63.36
-61.04
-54.39
-43.70
-30.01
-14.83
0.22
13.88
25.37
34.34
40.65
44.27
45.19
43.57
39.90
35.04
30.10
26.18
24.02
23.79
25.13
27.30
29.56
31.43
32.75
33.59
34.00
33.85
32.76
30.25
25.97
19.99
12.74
5.00
-2.42
-8.94
-14.34
-18.84
-22.93
-27.17
-32.02
-37.69
-43.98
-50.26
-55.52
-58.55
-58.28
-54.06
-45.94
-34.67
-21.47
-7.68
5.47
17.13
26.73
33.90
38.31
39.75
38.23
34.21
28.65
22.82
18.03
15.29
15.01
16.96
20.38
24.29
27.76
30.20
31.42
31.59
31.00
29.84
28.06
25.39
21.50
16.30
10.06
3.38
-3.05
-8.71
-13.50
-17.70
-21.74
-26.03
-30.76
-35.92
-41.38
-46.90
-52.03
-56.09
-58.13
-57.15
-52.45
-43.82
-31.82
-17.60
-2.66
11.50
23.62
32.82
38.63
40.90
39.85
36.00
30.27
23.87
18.15
14.29
12.97
14.18
17.29
21.22
24.89
27.54
28.85
28.92
27.98
26.34
24.10
21.22
17.57
13.06
7.75
1.91
-4.05
-9.74
-14.90
-19.52
-23.84
-28.12
-32.56
-37.20
-41.96
-46.62
-50.88
-54.25
-56.05
-55.45
-51.72
-44.48
-34.01
-21.15
-7.25
6.25
18.05
27.22
33.23
35.89
35.32
31.93
26.43
19.85
13.45
8.55
6.18
6.75
9.90
14.62
19.56
23.53
25.84
26.36
25.38
23.26
20.26
16.47
11.98
6.91
1.57
-3.64
-8.44
-12.71
-16.56
-20.27
-24.17
-28.55
-33.58
-39.22
-45.19
-50.94
-55.75
-58.68
-58.86
-55.58
-48.56
-38.08
-25.01
-10.63
3.64
16.57
27.31
35.38
40.57
42.85
42.35
39.47
34.90
29.63
24.78
21.33
19.92
20.69
23.32
27.12
31.16
34.55
36.54
36.76
35.22
32.18
28.06
23.22
17.92
12.39
6.88
1.62
-3.28
-7.84
-12.27
-16.79
-21.51
-26.28
-30.83
-34.91
-38.55
-42.03
-45.85
-50.48
-56.07
-62.25
-68.05
-72.12
-72.96
-69.45
-61.16
-48.63
-33.21
-16.66
-0.70
13.35
24.82
33.47
39.39
42.78
43.87
43.05
40.86
38.00
35.21
33.15
32.21
32.50
33.85
35.88
38.10
40.01
41.14
41.18
39.92
37.37
33.72
29.28
24.42
19.41
14.37
9.29
4.12
-1.13
-6.32
-11.24
-15.68
-19.61
-23.12
-26.40
-29.64
-33.06
-36.84
-41.29
-46.73
-53.28
-60.59
-67.68
-73.00
-74.86
-71.96
-63.82
-51.08
-35.23
-18.24
-2.00
12.14
23.52
32.04
37.96
41.60
43.25
43.21
41.97
40.16
38.53
37.72
38.05
39.44
41.45
43.58
45.37
46.58
47.12
47.04
46.34
45.00
42.95
40.09
36.44
32.05
27.18
22.13
17.24
12.75
8.74
5.16
1.97
-0.83
-3.23
-5.26
-7.08
-9.06
-11.58
-14.88
-18.94
-23.47
-28.07
-32.41
-36.37
-40.09
-43.95
-48.35
-53.66
-60.07
-67.36
-74.84
-81.32
-85.22
-85.05
-79.83
-69.51
-55.01
-38.05
-20.62
-4.43
9.43
20.51
28.83
34.61
38.00
39.17
38.37
36.16
33.35
30.90
29.63
30.01
32.02
35.18
38.82
42.16
44.65
46.00
46.20
45.43
43.91
41.77
39.03
35.65
31.62
27.09
22.34
17.72
13.50
9.81
6.62
3.78
1.16
-1.41
-4.01
-6.77
-9.80
-13.12
-16.69
-20.38
-24.04
-27.63
-31.21
-35.00
-39.24
-44.16
-49.74
-55.68
-61.27
-65.50
-67.24
-65.49
-59.74
-50.12
-37.46
-23.00
-8.20
5.60
17.33
26.27
32.04
34.57
34.11
31.27
26.96
22.25
18.25
15.82
15.42
16.98
20.03
23.84
27.64
30.87
33.14
34.27
34.17
32.84
30.28
26.64
22.17
17.28
12.40
7.87
3.88
0.37
-2.84
-6.03
-9.39
-12.99
-16.70
-20.27
-23.47
-26.26
-28.87
-31.76
-35.41
-40.00
-45.18
-50.04
-53.34
-53.89
-50.86
-44.15
-34.27
-22.27
-9.45
2.88
13.62
21.95
27.40
29.84
29.45
26.68
22.17
16.73
11.27
6.75
3.99
3.50
5.21
8.55
12.59
16.37
19.22
20.86
21.33
20.78
19.26
16.72
13.06
8.35
2.87
-2.88
-8.41
-13.40
-17.85
-21.99
-26.16
-30.69
-35.80
-41.49
-47.60
-53.62
-58.74
-61.86
-61.83
-57.78
-49.46
-37.40
-22.86
-7.37
7.55
20.78
31.61
39.67
44.75
46.78
45.88
42.52
37.50
31.89
26.82
23.26
21.80
22.54
25.11
28.74
32.50
35.48
37.01
36.78
34.81
31.40
26.95
21.91
16.68
11.51
6.42
1.26
-4.18
-10.06
-16.33
-22.71
-28.86
-34.51
-39.64
-44.39
-49.11
-54.16
-59.89
-66.44
-73.70
-81.04
-87.27
-90.82
-90.08
-83.93
-72.19
-55.74
-36.32
-16.10
2.91
19.20
31.97
41.10
46.91
49.92
50.70
49.76
47.68
45.13
42.88
41.60
41.68
43.06
45.24
47.55
49.35
50.30
50.30
49.45
47.80
45.35
42.01
37.73
32.55
26.65
20.32
13.84
7.45
1.26
-4.73
-10.59
-16.34
-21.86
-26.90
-31.25
-34.92
-38.25
-41.91
-46.65
-53.03
-61.07
-70.12
-78.86
-85.53
-88.33
-85.83
-77.43
-63.54
-45.52
-25.36
-5.21
13.17
28.62
40.67
49.34
54.83
57.46
57.58
55.66
52.42
48.73
45.53
43.59
43.31
44.65
47.11
49.95
52.43
54.02
54.49
53.86
52.25
49.75
46.31
41.86
36.40
30.11
23.39
16.69
10.46
5.03
0.51
-3.19
-6.34
-9.34
-12.62
-16.45
-20.93
-25.84
-30.83
-35.53
-39.73
-43.45
-46.89
-50.46
-54.62
-59.89
-66.58
-74.63
-83.29
-91.10
-96.08
-96.26
-90.29
-77.91
-60.11
-38.88
-16.70
4.14
21.92
35.72
45.33
51.02
53.30
52.79
50.15
46.26
42.07
38.61
36.70
36.75
38.62
41.70
45.19
48.28
50.50
51.65
51.79
51.07
49.59
47.36
44.28
40.25
35.26
29.49
23.34
17.29
11.74
6.87
2.56
-1.47
-5.49
-9.67
-13.93
-18.05
-21.83
-25.15
-28.08
-30.81
-33.62
-36.87
-40.87
-45.92
-52.11
-59.29
-66.87
-73.76
-78.52
-79.61
-75.85
-66.77
-52.87
-35.49
-16.56
1.99
18.59
32.25
42.52
49.31
52.67
52.80
50.12
45.36
39.58
34.01
29.75
27.47
27.33
28.98
31.77
34.99
38.03
40.42
41.82
41.98
40.73
37.99
33.85
28.58
22.62
16.41
10.37
4.73
-0.47
-5.31
-9.92
-14.31
-18.39
-22.02
-25.12
-27.80
-30.38
-33.33
-37.09
-41.91
-47.67
-53.78
-59.24
-62.78
-63.14
-59.44
-51.44
-39.67
-25.36
-10.06
4.70
17.69
28.10
35.48
39.58
40.39
38.15
33.48
27.39
21.14
16.00
12.90
12.22
13.77
16.85
20.60
24.19
27.05
28.90
29.71
29.50
28.24
25.83
22.14
17.24
11.38
5.04
-1.25
-7.08
-12.28
-16.95
-21.39
-25.94
-30.92
-36.54
-42.84
-49.63
-56.48
-62.62
-67.05
-68.65
-66.47
-59.98
-49.32
-35.40
-19.81
-4.31
9.51
20.72
29.02
34.61
37.79
38.72
37.46
34.14
29.28
23.82
18.91
15.56
14.33
15.19
17.63
20.89
24.23
27.01
28.84
29.47
28.81
26.84
23.52
18.83
12.82
5.78
-1.84
-9.42
-16.42
-22.55
-27.80
-32.45
-36.87
-41.44
-46.57
-52.57
-59.57
-67.25
-74.72
-80.55
-83.02
-80.76
-73.10
-60.34
-43.67
-24.77
-5.55
12.27
27.37
38.95
46.76
51.05
52.38
51.42
48.81
45.12
40.92
36.90
33.77
32.07
32.02
33.39
35.62
38.08
40.24
41.83
42.72
42.83
41.98
39.90
36.33
31.19
24.74
17.55
10.31
3.58
-2.35
-7.63
-12.55
-17.42
-22.28
-26.99
-31.34
-35.23
-38.83
-42.52
-46.73
-51.84
-58.08
-65.37
-73.21
-80.52
-85.73
-87.04
-83.05
-73.30
-58.48
-40.31
-20.94
-2.30
14.33
28.30
39.41
47.57
52.67
54.71
53.91
50.86
46.57
42.25
39.07
37.84
38.85
41.78
45.83
50.04
53.54
55.80
56.64
56.13
54.44
51.71
47.99
43.33
37.86
31.81
25.56
19.52
14.00
9.12
4.69
0.34
-4.36
-9.59
-15.23
-20.81
-25.76
-29.71
-32.64
-34.94
-37.28
-40.32
-44.61
-50.44
-57.78
-66.13
-74.50
-81.39
-85.09
-84.08
-77.53
-65.57
-49.35
-30.65
-11.50
6.36
21.69
33.85
42.62
48.10
50.50
50.19
47.65
43.63
39.05
34.93
32.15
31.20
32.06
34.24
37.07
39.87
42.22
43.98
45.11
45.57
45.18
43.69
40.83
36.57
31.15
25.08
18.97
13.31
8.33
3.90
-0.25
-4.38
-8.57
-12.68
-16.48
-19.79
-22.65
-25.34
-28.24
-31.79
-36.28
-41.79
-48.14
-54.81
-60.92
-65.30
-66.69
-64.07
-56.96
-45.65
-31.21
-15.24
0.49
14.48
25.75
33.83
38.71
40.60
39.84
36.83
32.17
26.75
21.63
17.89
16.28
17.00
19.68
23.50
27.58
31.14
33.65
34.85
34.64
33.04
30.15
26.20
21.50
16.40
11.21
6.14
1.30
-3.36
-8.00
-12.76
-17.72
-22.79
-27.71
-32.13
-35.83
-38.91
-41.77
-45.01
-49.06
-53.86
-58.73
-62.46
-63.70
-61.36
-54.96
-44.74
-31.62
-16.98
-2.29
11.08
22.07
30.05
34.70
36.09
34.57
30.76
25.58
20.09
15.45
12.57
11.98
13.63
16.97
21.06
24.92
27.77
29.26
29.44
28.59
27.03
24.88
22.04
18.30
13.52
7.80
1.52
-4.85
-10.92
-16.52
-21.69
-26.59
-31.34
-36.04
-40.75
-45.55
-50.39
-55.01
-58.75
-60.73
-59.92
-55.59
-47.50
-36.07
-22.30
-7.55
6.81
19.57
29.88
37.26
41.56
42.82
41.29
37.49
32.24
26.70
22.12
19.53
19.42
21.59
25.25
29.36
33.02
35.71
37.29
37.86
37.53
36.28
34.03
30.67
26.25
21.02
15.43
9.95
4.90
0.28
-4.23
-9.05
-14.42
-20.24
-26.01
-31.13
-35.20
-38.20
-40.50
-42.72
-45.50
-49.34
-54.64
-61.49
-69.64
-78.24
-85.86
-90.68
-90.99
-85.72
-74.80
-59.26
-40.86
-21.74
-3.81
11.51
23.52
32.10
37.65
40.79
42.11
42.13
41.27
39.91
38.50
37.51
37.26
37.88
39.28
41.23
43.44
45.64
47.63
49.18
50.04
49.97
48.72
46.09
41.97
36.44
29.84
22.78
16.02
10.25
5.82
2.62
0.15
-2.31
-5.30
-9.07
-13.51
-18.26
-22.93
-27.23
-31.11
-34.70
-38.33
-42.42
-47.40
-53.51
-60.68
-68.36
-75.49
-80.51
-81.78
-77.96
-68.48
-53.90
-35.76
-16.22
2.61
19.13
32.50
42.47
49.07
52.44
52.80
50.60
46.65
42.10
38.16
35.80
35.50
37.14
40.18
43.80
47.26
50.06
51.98
53.02
53.29
52.80
51.42
49.02
45.53
41.12
36.21
31.28
26.71
22.62
18.88
15.21
11.43
7.53
3.73
0.31
-2.51
-4.73
-6.58
-8.52
-11.02
-14.38
-18.62
-23.45
-28.41
-33.04
-37.10
-40.64
-43.97
-47.63
-52.18
-58.10
-65.43
-73.61
-81.37
-86.88
-88.27
-84.23
-74.49
-59.96
-42.43
-23.94
-6.27
9.38
22.33
32.26
39.01
42.53
43.00
40.92
37.11
32.60
28.43
25.41
24.03
24.36
26.13
28.86
31.99
35.07
37.81
40.08
41.75
42.64
42.49
41.03
38.20
34.10
29.14
23.83
18.70
14.16
10.42
7.43
4.88
2.40
-0.39
-3.63
-7.22
-10.88
-14.27
-17.19
-19.68
-21.96
-24.35
-27.19
-30.78
-35.35
-40.98
-47.41
-53.97
-59.56
-62.91
-62.87
-58.80
-50.80
-39.59
-26.32
-12.23
1.54
14.07
24.57
32.39
37.01
38.27
36.42
32.27
26.98
21.84
17.92
15.87
15.80
17.41
20.12
23.33
26.53
29.29
31.35
32.48
32.50
31.28
28.82
25.26
20.89
16.11
11.29
6.66
2.24
-2.09
-6.51
-11.08
-15.71
-20.18
-24.27
-27.92
-31.29
-34.77
-38.80
-43.70
-49.60
-56.23
-62.95
-68.74
-72.36
-72.59
-68.59
-60.18
-47.98
-33.30
-17.81
-3.06
9.78
20.10
27.73
32.75
35.32
35.60
33.88
30.67
26.75
23.03
20.41
19.43
20.20
22.32
25.16
28.04
30.47
32.24
33.28
33.59
33.09
31.57
28.85
24.90
19.94
14.41
8.80
3.46
-1.50
-6.25
-11.00
-15.89
-20.86
-25.65
-29.94
-33.54
-36.47
-39.02
-41.62
-44.76
-48.86
-54.17
-60.61
-67.62
-74.15
-78.71
-79.76
-76.18
-67.66
-54.86
-39.18
-22.37
-6.00
8.81
21.46
31.59
38.97
43.44
44.96
43.87
40.87
37.01
33.37
30.90
30.11
31.14
33.68
37.20
41.01
44.50
47.23
48.95
49.57
49.03
47.29
44.26
39.92
34.47
28.37
22.21
16.55
11.69
7.54
3.76
-0.08
-4.29
-8.87
-13.58
-18.08
-22.08
-25.49
-28.49
-31.45
-34.88
-39.21
-44.70
-51.28
-58.47
-65.32
-70.56
-72.76
-70.71
-63.78
-52.20
-37.05
-20.04
-3.07
12.30
25.05
34.77
41.49
45.41
46.78
45.93
43.29
39.56
35.65
32.52
30.93
31.23
33.28
36.51
40.16
43.49
45.99
47.46
47.91
47.49
46.32
44.43
41.81
38.43
34.32
29.65
24.65
19.58
14.63
9.94
5.57
1.50
-2.27
-5.77
-9.07
-12.21
-15.29
-18.40
-21.63
-24.96
-28.40
-31.92
-35.56
-39.49
-43.98
-49.32
-55.64
-62.68
-69.72
-75.49
-78.51
-77.45
-71.54
-60.86
-46.34
-29.51
-12.10
4.34
18.69
30.27
38.77
44.09
46.36
45.97
43.55
40.04
36.43
33.63
32.25
32.45
33.97
36.23
38.50
40.15
40.80
40.42
39.24
37.59
35.68
33.50
30.80
27.34
23.03
18.04
12.76
7.60
2.83
-1.50
-5.52
-9.37
-13.07
-16.53
-19.56
-22.04
-24.05
-25.86
-27.90
-30.61
-34.29
-39.06
-44.75
-50.86
-56.62
-61.04
-63.06
-61.73
-56.51
-47.49
-35.36
-21.35
-6.88
6.70
18.37
27.49
33.73
36.98
37.29
34.99
30.64
25.14
19.50
14.76
11.71
10.72
11.68
14.11
17.34
20.66
23.51
25.53
26.53
26.44
25.25
22.98
19.66
15.43
10.46
5.08
-0.36
-5.53
-10.20
-14.30
-17.92
-21.27
-24.61
-28.14
-32.03
-36.36
-41.16
-46.37
-51.66
-56.43
-59.71
-60.39
-57.53
-50.75
-40.42
-27.65
-13.89
-0.58
11.22
20.88
28.12
32.79
34.80
34.15
31.12
26.37
20.87
15.74
11.95
10.10
10.28
12.16
15.10
18.39
21.38
23.57
24.66
24.52
23.12
20.47
16.68
11.89
6.38
0.56
-5.16
-10.45
-15.17
-19.38
-23.27
-27.13
-31.28
-36.05
-41.65
-48.14
-55.17
-61.92
-67.13
-69.35
-67.41
-60.82
-50.00
-36.15
-20.96
-6.06
7.32
18.53
27.43
34.14
38.78
41.37
41.89
40.43
37.44
33.69
30.15
27.68
26.79
27.50
29.45
32.08
34.86
37.36
39.24
40.24
40.04
38.42
35.23
30.59
24.82
18.42
11.95
5.90
0.55
-4.15
-8.46
-12.77
-17.37
-22.30
-27.34
-32.14
-36.43
-40.18
-43.76
-47.75
-52.78
-59.18
-66.74
-74.59
-81.32
-85.30
-85.10
-79.92
-69.80
-55.61
-38.82
-21.07
-3.87
11.63
24.68
34.95
42.30
46.86
48.88
48.79
47.18
44.77
42.35
40.73
40.52
41.94
44.81
48.51
52.18
55.02
56.46
56.35
54.92
52.57
49.66
46.35
42.55
38.04
32.77
26.94
21.02
15.53
10.81
6.84
3.25
-0.39
-4.44
-8.92
-13.58
-18.00
-21.91
-25.19
-28.05
-30.86
-34.10
-38.26
-43.68
-50.50
-58.57
-67.37
-75.93
-82.95
-86.93
-86.51
-80.85
-69.93
-54.65
-36.72
-18.17
-0.83
14.03
25.89
34.76
40.92
44.64
46.14
45.62
43.51
40.52
37.55
35.53
35.08
36.38
39.13
42.71
46.42
49.62
51.90
53.05
53.02
51.83
49.50
46.06
41.61
36.38
30.70
25.02
19.71
15.02
10.98
7.37
3.87
0.16
-3.93
-8.32
-12.73
-16.77
-20.13
-22.70
-24.69
-26.54
-28.82
-32.07
-36.62
-42.52
-49.56
-57.21
-64.67
-70.83
-74.37
-74.02
-68.91
-58.97
-44.99
-28.51
-11.37
4.78
18.78
30.05
38.43
43.96
46.77
47.03
45.11
41.63
37.46
33.57
30.84
29.79
30.50
32.60
35.42
38.27
40.68
42.45
43.53
43.87
43.22
41.25
37.71
32.70
26.74
20.63
15.13
10.59
6.94
3.69
0.36
-3.35
-7.33
-11.28
-14.88
-18.03
-20.87
-23.74
-26.97
-30.81
-35.28
-40.32
-45.75
-51.19
-56.06
-59.50
-60.57
-58.42
-52.66
-43.50
-31.73
-18.57
-5.33
6.83
17.00
24.64
29.45
31.40
30.71
27.82
23.45
18.48
13.93
10.71
9.45
10.31
12.92
16.49
20.10
23.01
24.82
25.49
25.16
23.96
21.89
18.89
14.97
10.35
5.42
0.59
-3.89
-8.05
-12.05
-16.12
-20.35
-24.67
-28.99
-33.29
-37.67
-42.21
-46.82
-51.05
-54.07
-54.89
-52.68
-47.08
-38.31
-27.19
-14.81
-2.36
9.23
19.24
27.23
32.86
35.84
36.01
33.43
28.60
22.47
16.29
11.26
8.21
7.34
8.26
10.24
12.45
14.28
15.39
15.64
15.03
13.56
11.23
8.06
4.09
-0.47
-5.35
-10.24
-14.90
-19.19
-23.14
-26.97
-31.00
-35.54
-40.83
-46.94
-53.66
-60.47
-66.52
-70.74
-71.99
-69.41
-62.62
-51.92
-38.25
-22.98
-7.59
6.66
18.88
28.68
35.99
40.96
43.71
44.35
43.05
40.15
36.24
32.15
28.79
26.85
26.65
28.03
30.44
33.14
35.42
36.72
36.69
35.21
32.36
28.28
23.22
17.39
11.03
4.39
-2.28
-8.75
-14.87
-20.57
-25.86
-30.81
-35.44
-39.81
-43.99
-48.20
-52.83
-58.23
-64.59
-71.53
-78.09
-82.83
-84.23
-81.16
-73.25
-61.01
-45.61
-28.56
-11.35
4.83
19.12
30.94
39.93
45.92
48.94
49.33
47.67
44.76
41.51
38.73
37.11
36.96
38.29
40.74
43.72
46.59
48.82
50.08
50.24
49.29
47.21
43.98
39.61
34.18
27.93
21.24
14.47
7.93
1.73
-4.11
-9.68
-15.04
-20.20
-25.13
-29.79
-34.24
-38.65
-43.38
-48.84
-55.32
-62.68
-70.18
-76.45
-79.83
-78.79
-72.48
-61.02
-45.44
-27.41
-8.81
8.69
23.89
36.03
44.81
50.22
52.43
51.82
48.97
44.65
39.90
35.77
33.17
32.50
33.67
36.09
38.98
41.69
43.89
45.48
46.46
46.72
45.98
43.91
40.24
35.02
28.58
21.51
14.44
7.84
1.89
-3.54
-8.75
-14.03
-19.39
-24.57
-29.17
-32.91
-35.81
-38.28
-41.01
-44.67
-49.72
-56.24
-63.80
-71.52
-78.08
-81.91
-81.53
-75.96
-65.02
-49.54
-31.17
-11.88
6.46
22.49
35.41
44.93
51.07
53.99
53.97
51.47
47.18
42.06
37.23
33.75
32.36
33.27
36.11
40.04
44.11
47.51
49.84
51.02
51.19
50.41
48.57
45.44
40.85
34.86
27.90
20.64
13.77
7.75
2.62
-1.96
-6.49
-11.38
-16.72
-22.22
-27.42
-31.89
-35.54
-38.61
-41.60
-45.07
-49.44
-54.91
-61.39
-68.48
-75.37
-80.84
-83.40
-81.63
-74.57
-62.17
-45.38
-25.93
-5.91
12.77
28.72
41.13
49.68
54.37
55.40
53.20
48.50
42.32
35.88
30.44
26.92
25.79
26.91
29.70
33.36
37.09
40.28
42.57
43.75
43.74
42.50
40.04
36.41
31.70
26.07
19.68
12.74
5.44
-1.97
-9.27
-16.18
-22.49
-28.06
-32.83
-36.90
-40.51
-44.08
-48.13
-53.10
-59.12
-65.75
-71.86
-75.82
-75.95
-70.99
-60.65
-45.68
-27.75
-8.90
8.93
24.32
36.46
45.05
50.03
51.48
49.64
44.97
38.30
30.76
23.67
18.23
15.26
14.98
17.01
20.55
24.67
28.54
31.57
33.48
34.16
33.57
31.71
28.56
24.17
18.63
12.18
5.15
-2.07
-9.12
-15.73
-21.81
-27.42
-32.73
-38.00
-43.50
-49.49
-56.15
-63.41
-70.77
-77.20
-81.21
-81.23
-76.08
-65.46
-50.12
-31.65
-12.01
6.89
23.61
37.22
47.25
53.53
56.05
55.00
50.80
44.18
36.24
28.29
21.66
17.40
15.92
16.96
19.67
22.97
25.96
28.13
29.38
29.77
29.34
27.92
25.23
21.06
15.48
8.83
1.64
-5.53
-12.28
-18.43
-24.00
-29.15
-34.10
-39.13
-44.51
-50.46
-57.01
-63.85
-70.26
-75.03
-76.74
-74.04
-66.10
-52.95
-35.60
-15.87
4.13
22.42
37.65
49.07
56.52
60.08
59.98
56.58
50.51
42.80
34.81
27.96
23.39
21.59
22.39
25.06
28.66
32.32
35.42
37.63
38.82
38.95
37.94
35.69
32.06
27.04
20.70
13.37
5.47
-2.53
-10.26
-17.53
-24.33
-30.73
-36.87
-42.82
-48.70
-54.65
-60.73
-66.83
-72.42
-76.50
-77.68
-74.65
-66.56
-53.47
-36.39
-17.08
2.45
20.41
35.57
47.26
55.22
59.39
59.82
56.75
50.83
43.13
35.11
28.29
23.85
22.31
23.50
26.63
30.62
34.50
37.58
39.53
40.31
39.96
38.47
35.73
31.54
25.81
18.71
10.63
2.17
-6.04
-13.59
-20.28
-26.17
-31.45
-36.42
-41.39
-46.65
-52.41
-58.63
-64.84
-70.15
-73.24
-72.79
-67.85
-58.17
-44.37
-27.79
-10.15
6.91
22.06
34.47
43.61
49.18
50.98
48.98
43.55
35.65
