1629061684.00
64.000000
-0.00
-0.00
-0.00
-0.00
-0.00
-0.00
-0.00
-0.00
-0.00
-0.00
0.00
0.01
0.01
-0.00
-0.03
-0.05
-0.05
0.00
0.13
0.36
0.66
1.01
1.37
1.72
2.06
2.40
2.79
3.24
3.80
4.42
5.06
5.66
6.20
6.68
7.15
7.68
8.31
9.14
10.09
11.04
11.88
12.56
13.14
13.76
14.65
15.96
17.91
20.32
22.90
25.38
27.58
29.57
31.68
34.32
37.81
42.54
48.15
54.10
59.83
64.97
69.58
74.14
79.34
85.71
93.76
103.00
112.62
121.73
129.77
136.75
143.30
150.75
157.77
166.64
177.95
191.79
206.97
220.57
228.25
225.36
208.53
176.87
132.76
80.05
23.07
-34.94
-92.44
-149.16
-205.23
-260.37
-313.74
-363.87
-409.83
-450.91
-486.50
-515.74
-537.23
-549.22
-549.96
-538.37
-514.21
-478.67
-433.88
-382.45
-327.02
-269.84
-212.63
-156.66
-102.95
-52.37
-5.90
35.58
71.43
101.35
125.50
144.38
158.69
169.15
176.37
180.75
182.57
182.07
179.51
175.23
169.65
163.18
156.14
148.80
141.30
133.69
126.03
118.36
110.71
103.16
95.77
88.60
81.69
75.07
68.75
62.72
56.97
51.50
46.30
41.40
36.81
32.58
28.70
25.18
21.97
19.03
16.30
13.76
11.43
9.32
7.48
5.94
4.69
3.65
2.73
1.81
0.84
-0.17
-1.13
-1.91
-2.41
-2.66
-2.78
-2.99
-3.50
-4.39
-5.58
-6.80
-7.75
-8.22
-8.24
-8.06
-8.13
-8.80
-10.22
-12.15
-14.11
-15.57
-16.21
-16.13
-15.81
-15.87
-16.78
-18.57
-20.90
-23.30
-25.42
-27.15
-28.39
-28.87
-28.00
-25.29
-20.74
-15.05
-9.22
-3.75
1.98
9.60
20.85
36.27
54.39
71.97
85.27
91.68
90.66
83.73
73.33
61.69
49.97
38.48
27.22
16.50
7.11
-0.00
-4.30
-6.00
-5.99
-5.41
-5.01
-4.92
-4.75
-3.96
-2.33
-0.16
1.89
3.15
3.32
2.57
1.44
0.51
0.09
0.05
-0.11
-1.06
-3.42
-7.61
-13.44
-19.97
-25.53
-28.10
-26.01
-18.63
-6.84
7.08
20.14
29.64
33.93
32.88
27.61
19.83
11.16
2.71
-4.91
-11.44
-16.68
-20.40
-22.41
-22.73
-21.59
-19.42
-16.76
-14.07
-11.69
-9.81
-8.58
-8.08
-8.33
-9.26
-10.63
-12.12
-13.33
-13.97
-13.92
-13.33
-12.55
-12.15
-12.71
-14.58
-17.40
-19.94
-20.20
-16.07
-6.22
9.20
28.31
47.94
64.64
75.79
80.22
78.30
71.37
61.16
49.34
37.23
25.79
15.59
6.77
-0.98
-7.85
-14.00
-19.46
-24.03
-27.44
-29.61
-30.90
-32.07
-34.20
-38.15
-44.33
-52.51
-61.89
-71.42
-80.18
-87.66
-93.86
-99.24
-104.64
-111.13
-119.61
-130.12
-141.15
-149.31
-149.86
-138.12
-111.36
-70.30
-19.41
34.29
83.51
122.81
149.90
165.40
171.65
171.31
166.49
158.54
148.59
137.90
127.89
119.82
114.23
110.69
107.92
104.41
99.04
91.55
82.49
72.87
63.52
54.68
45.97
36.70
26.42
15.30
4.12
-6.02
-14.31
-20.63
-25.67
-30.78
-37.51
-47.01
-59.44
-73.65
-87.07
-96.28
-97.95
-89.91
-71.95
-46.04
-15.70
15.10
42.93
65.60
82.20
92.72
97.63
97.62
93.51
86.28
77.01
66.69
56.05
45.49
35.14
25.09
15.50
6.71
-0.97
-7.36
-12.57
-16.97
-21.07
-25.32
-29.99
-35.14
-40.68
-46.50
-52.51
-58.75
-65.46
-73.00
-81.78
-91.90
-102.67
-112.39
-118.47
-118.11
-109.34
-91.87
-67.41
-39.20
-10.96
14.13
34.09
48.15
56.35
59.02
56.61
49.80
39.68
27.84
16.14
6.29
-0.54
-4.08
-4.97
-4.52
-4.28
-5.56
-9.01
-14.54
-21.44
-28.79
-35.87
-42.49
-48.90
-55.70
-63.55
-73.07
-84.63
-98.15
-112.69
-126.26
-135.87
-138.21
-130.68
-112.51
-85.15
-52.01
-17.42
14.72
41.83
62.91
78.15
88.22
93.72
94.98
92.24
85.98
77.14
67.03
57.05
48.27
41.12
35.34
30.26
25.12
19.49
13.35
7.01
0.86
-4.87
-10.26
-15.67
-21.62
-28.71
-37.54
-48.59
-62.02
-77.34
-93.09
-106.76
-115.23
-115.54
-105.96
-86.73
-60.07
-29.61
0.79
28.04
50.43
67.50
79.57
87.12
90.48
89.86
85.59
78.37
69.29
59.69
50.73
43.17
37.15
32.30
27.91
23.28
17.93
11.78
5.07
-1.86
-8.74
-15.56
-22.56
-30.13
-38.75
-48.81
-60.66
-74.44
-89.75
-105.34
-118.88
-127.26
-127.38
-117.14
-96.37
-67.12
-33.05
1.61
33.31
59.82
80.34
95.04
104.55
109.46
110.27
107.51
101.81
93.98
84.92
75.46
66.29
57.88
50.49
44.15
38.65
33.59
28.39
22.53
15.62
7.53
-1.60
-11.38
-21.41
-31.29
-40.86
-50.18
-59.70
-70.16
-82.35
-96.55
-111.95
-126.23
-135.88
-137.12
-127.30
-105.94
-75.20
-39.14
-2.41
31.04
58.81
80.09
95.11
104.49
108.87
108.86
105.20
98.82
90.79
82.14
73.65
65.78
58.74
52.59
47.26
42.67
38.58
34.58
30.08
24.49
17.32
8.48
-1.71
-12.62
-23.47
-33.72
-43.21
-52.37
-62.08
-73.44
-87.26
-103.42
-120.46
-135.42
-144.43
-143.88
-131.65
-107.98
-75.57
-38.68
-1.75
31.72
59.83
82.00
98.42
109.43
115.27
116.19
112.79
106.12
97.68
89.01
81.30
75.05
70.06
65.65
61.07
55.98
50.60
45.50
41.17
37.64
34.17
29.57
22.67
12.96
0.84
-12.48
-25.49
-36.95
-46.35
-54.02
-60.96
-68.49
-77.89
-90.07
-105.19
-122.21
-138.75
-151.27
-155.88
-149.45
-130.85
-101.42
-64.77
-25.63
11.54
43.63
69.24
88.35
101.57
109.57
112.79
111.68
106.94
99.73
91.49
83.66
77.24
72.65
69.70
67.75
66.08
64.05
61.28
57.64
53.20
48.03
42.17
35.54
28.02
19.51
10.01
-0.35
-11.30
-22.50
-33.58
-44.18
-54.03
-62.98
-71.09
-78.68
-86.38
-95.05
-105.60
-118.64
-133.91
-149.79
-163.19
-170.05
-166.52
-150.31
-121.74
-83.87
-41.59
-0.12
36.44
65.91
87.92
103.19
112.74
117.50
118.19
115.59
110.61
104.32
97.66
91.36
85.78
80.96
76.77
73.04
69.57
66.21
62.80
59.12
54.87
49.80
43.70
36.54
28.45
19.64
10.30
0.54
-9.62
-20.10
-30.72
-41.15
-50.99
-59.92
-67.85
-75.09
-82.28
-90.36
-100.34
-112.82
-127.45
-142.44
-154.56
-159.81
-154.66
-137.39
-108.85
-72.32
-32.51
5.97
39.75
67.23
88.19
103.11
112.53
116.78
116.20
111.45
103.76
94.76
86.11
79.00
73.91
70.53
68.01
65.43
62.11
57.83
52.81
47.49
42.27
37.22
32.00
25.97
18.43
9.01
-2.11
-14.14
-25.98
-36.63
-45.59
-53.05
-59.75
-66.72
-74.97
-85.24
-97.85
-112.42
-127.58
-140.78
-148.64
-147.69
-135.65
-112.27
-79.76
-42.12
-3.96
30.80
59.65
81.64
96.85
105.89
109.46
108.37
103.61
96.41
88.14
80.01
72.83
66.86
61.86
57.29
52.69
47.92
43.24
39.05
35.58
32.57
29.08
23.95
16.25
5.76
-6.74
-19.83
-31.94
-42.00
-49.78
-55.98
-61.94
-69.22
-79.10
-92.12
-107.65
-123.62
-136.65
-142.81
-138.73
-122.83
-96.02
-61.67
-24.54
10.61
40.25
62.69
77.84
86.58
89.98
88.97
84.37
77.07
68.19
58.95
50.47
43.44
38.10
34.26
31.48
29.21
26.96
24.27
20.73
16.06
10.14
3.03
-4.98
-13.47
-21.99
-30.24
-38.20
-46.17
-54.81
-64.90
-76.95
-90.65
-104.48
-115.64
-120.63
-116.33
-101.18
-75.90
-43.56
-8.60
24.44
52.16
72.92
86.62
94.12
96.43
94.44
88.82
80.41
70.33
59.92
50.46
42.83
37.32
33.58
30.93
28.54
25.64
21.65
16.28
9.51
1.56
-7.12
-16.07
-24.90
-33.44
-41.78
-50.28
-59.58
-70.46
-83.54
-98.69
-114.53
-128.22
-135.96
-134.16
-120.73
-96.13
-63.39
-27.11
7.94
38.27
62.21
79.75
91.70
98.82
101.46
99.66
93.63
84.17
72.80
61.49
52.03
45.45
41.65
39.59
37.76
34.85
30.21
24.00
16.87
9.54
2.42
-4.53
-11.67
-19.44
-28.23
-38.33
-50.03
-63.46
-78.34
-93.52
-106.79
-115.08
-115.25
-105.16
-84.62
-55.68
-22.16
11.47
41.36
65.07
81.81
92.02
96.64
96.60
92.60
85.33
75.69
64.90
54.39
45.38
38.60
34.03
31.00
28.51
25.56
21.45
15.93
9.18
1.64
-6.25
-14.21
-22.18
-30.32
-38.87
-48.18
-58.60
-70.56
-84.24
-99.23
-114.04
-125.96
-131.54
-127.59
-112.44
-86.75
-53.52
-17.23
17.59
47.52
70.82
87.28
97.60
102.71
103.42
100.38
94.30
86.05
76.64
67.17
58.51
51.23
45.48
41.08
37.61
34.52
31.18
27.01
21.51
14.41
5.74
-4.14
-14.62
-25.03
-34.89
-44.08
-53.01
-62.46
-73.38
-86.37
-101.18
-116.22
-128.60
-134.76
-131.44
-117.00
-92.04
-59.44
-23.40
11.81
42.97
68.40
87.67
101.06
108.95
111.66
109.61
103.60
95.00
85.52
76.76
69.76
64.70
60.98
57.61
53.76
49.12
44.02
39.11
34.83
31.07
27.03
21.57
13.74
3.32
-9.03
-22.04
-34.36
-45.10
-54.17
-62.23
-70.39
-79.84
-91.47
-105.55
-121.37
-137.02
-149.46
-155.17
-151.10
-135.77
-109.98
-76.65
-39.93
-3.94
28.31
55.36
76.97
93.46
105.17
112.24
114.78
113.26
108.56
101.97
94.81
88.10
82.38
77.77
74.11
71.22
68.87
66.81
64.67
61.97
58.17
52.90
46.10
38.04
29.22
20.17
11.20
2.30
-6.85
-16.62
-27.18
-38.35
-49.57
-60.12
-69.47
-77.52
-84.76
-92.17
-100.96
-112.16
-126.09
-141.84
-157.06
-168.18
-171.37
-163.69
-144.18
-114.33
-77.61
-38.43
-0.80
32.55
60.41
82.67
99.71
111.92
119.60
123.09
122.93
120.02
115.40
110.06
104.69
99.62
94.89
90.40
86.16
82.31
79.05
76.40
74.04
71.28
67.25
61.30
53.22
43.51
33.11
23.07
14.11
6.28
-1.01
-8.66
-17.45
-27.64
-38.83
-50.18
-60.73
-69.85
-77.45
-83.98
-90.31
-97.54
-106.70
-118.37
-132.15
-146.32
-157.81
-162.85
-158.16
-142.14
-115.60
-81.67
-44.65
-8.73
23.18
49.80
71.13
87.70
99.86
107.64
111.00
110.29
106.46
100.93
95.17
90.17
86.20
82.91
79.72
76.27
72.66
69.27
66.50
64.35
62.36
59.69
55.52
49.36
41.32
32.05
22.54
13.74
6.21
-0.18
-6.11
-12.57
-20.38
-29.74
-40.13
-50.56
-59.99
-67.80
-74.05
-79.43
-84.99
-91.83
-100.77
-112.10
-125.20
-138.38
-148.85
-153.30
-148.78
-133.81
-109.04
-77.26
-42.53
-8.95
20.43
44.20
62.27
75.31
84.06
88.97
90.36
88.67
84.71
79.57
74.34
69.78
66.17
63.35
61.02
58.95
57.04
55.32
53.64
51.67
48.91
44.88
39.32
32.34
24.37
15.99
7.73
-0.20
-7.86
-15.58
-23.68
-32.33
-41.37
-50.39
-58.91
-66.59
-73.46
-80.02
-87.08
-95.61
-106.27
-118.99
-132.51
-144.30
-151.02
-149.42
-137.48
-115.30
-85.24
-51.18
-17.33
13.03
38.20
57.93
72.85
83.71
90.99
94.87
95.58
93.55
89.58
84.56
79.33
74.47
70.22
66.59
63.41
60.51
57.71
54.83
51.69
48.14
44.03
39.28
33.86
27.78
21.02
13.57
5.40
-3.50
-12.99
-22.81
-32.61
-42.06
-50.95
-59.29
-67.27
-75.27
-83.85
-93.61
-105.02
-117.95
-131.24
-142.49
-148.42
-145.89
-133.01
-110.09
-79.63
-45.59
-12.07
17.86
42.66
62.13
76.77
87.14
93.56
96.24
95.48
91.93
86.54
80.44
74.66
69.93
66.52
64.27
62.67
61.11
59.01
56.04
52.11
47.35
42.01
36.31
30.32
23.93
16.86
8.86
-0.20
-10.14
-20.56
-30.90
-40.72
-49.76
-58.07
-65.95
-73.88
-82.49
-92.51
-104.43
-118.12
-132.30
-144.44
-151.16
-149.22
-136.72
-113.93
-83.35
-48.95
-14.93
15.47
40.53
59.91
74.04
83.57
88.94
90.51
88.78
84.57
78.96
73.10
67.86
63.62
60.27
57.39
54.45
51.13
47.27
43.01
38.58
34.20
29.90
25.44
20.31
13.90
5.80
-4.01
-14.98
-26.22
-36.80
-46.11
-54.13
-61.32
-68.51
-76.58
-86.31
-98.11
-111.80
-126.27
-139.30
-147.86
-148.69
-139.47
-119.71
-91.08
-57.06
-21.75
11.22
39.56
62.35
79.68
91.93
99.47
102.59
101.80
98.00
92.53
86.78
81.77
77.81
74.52
71.18
67.17
62.37
57.20
52.24
47.90
44.08
40.15
35.24
28.72
20.42
10.75
0.50
-9.48
-18.58
-26.68
-34.14
-41.74
-50.52
-61.43
-75.03
-90.95
-107.67
-122.47
-131.89
-132.72
-123.02
-102.86
-74.55
-41.96
-9.35
19.80
43.50
61.28
73.58
81.10
84.34
83.56
79.07
71.52
61.94
51.53
41.45
32.53
25.09
19.06
14.02
9.36
4.38
-1.52
-8.77
-17.56
-27.90
-39.62
-52.38
-65.69
-78.93
-91.46
-102.89
-113.34
-123.49
-134.34
-146.55
-159.68
-171.88
-180.05
-180.68
-171.02
-150.14
-119.28
-81.51
-40.80
-0.90
35.39
66.41
91.48
110.35
122.99
129.56
130.58
127.14
120.77
113.19
105.86
99.62
94.54
90.11
85.47
79.83
72.76
64.24
54.65
44.54
34.44
24.69
15.41
6.45
-2.53
-12.11
-22.96
-35.72
-50.57
-66.68
-81.94
-93.08
-96.47
-89.26
-70.52
-41.68
-6.09
32.01
68.73
101.39
128.70
150.44
166.86
178.23
184.66
186.22
183.15
176.12
166.28
155.11
144.02
133.99
125.21
117.19
109.11
100.35
90.89
81.28
72.29
64.35
57.22
50.05
41.68
31.10
17.75
1.63
-16.75
-36.32
-55.34
-71.43
-81.87
-84.27
-77.39
-61.73
-39.54
-14.27
10.51
32.03
48.84
60.68
67.98
71.23
70.75
66.74
59.58
50.05
39.34
28.73
19.25
11.52
5.54
0.87
-3.21
-7.49
-12.61
-18.87
-26.10
-33.79
-41.33
-48.37
-55.02
-61.78
-69.31
-78.12
-88.40
-99.94
-112.13
-123.80
-133.11
-137.66
-134.99
-123.49
-103.11
-75.72
-44.56
-13.28
15.14
38.95
57.56
71.03
79.54
83.22
82.30
77.48
69.99
61.43
53.33
46.65
41.64
37.88
34.66
31.36
27.71
23.83
20.05
16.56
13.20
9.43
4.56
-1.99
-10.32
-19.97
-30.02
-39.44
-47.45
-53.86
-59.21
-64.54
-71.11
-79.93
-91.39
-104.93
-118.88
-130.56
-136.81
-134.81
-122.97
-101.61
-72.95
-40.59
-8.42
20.39
43.97
61.74
73.99
81.25
84.03
82.81
78.26
71.43
63.69
56.51
50.97
47.56
45.99
45.42
44.78
43.23
40.37
36.34
31.61
26.75
22.09
17.62
13.06
7.88
1.66
-5.82
-14.45
-23.75
-33.06
-41.76
-49.46
-56.14
-62.19
-68.24
-75.03
-83.23
-93.19
-104.77
-116.99
-127.93
-134.88
-134.96
-126.03
-107.59
-81.13
-49.83
-17.62
11.95
36.53
55.18
68.05
75.75
78.96
78.20
74.09
67.50
59.61
51.77
45.09
40.17
36.96
34.83
32.89
30.40
26.93
22.53
17.54
12.44
7.50
2.65
-2.53
-8.65
-16.18
-25.14
-34.99
-44.71
-53.20
-59.69
-63.99
-66.67
-68.71
-71.29
-75.43
-81.71
-90.08
-99.72
-108.88
-115.10
-115.63
-108.25
-92.05
-68.00
-38.74
-7.94
20.85
45.10
63.77
77.01
85.58
90.24
91.43
89.42
84.74
78.32
71.50
65.67
61.71
59.74
59.10
58.68
57.48
54.88
50.90
45.98
40.71
35.53
30.53
25.43
19.71
12.87
4.76
-4.41
-13.95
-23.04
-31.02
-37.61
-43.05
-47.96
-53.10
-59.23
-66.97
-76.73
-88.40
-101.05
-112.59
-119.99
-119.98
-110.19
-90.20
-62.00
-29.41
3.12
31.83
54.67
71.30
82.56
89.55
93.09
93.62
91.44
87.12
81.63
76.11
71.51
68.23
66.04
64.26
62.14
59.26
55.68
51.81
48.20
45.09
42.25
38.93
34.16
27.23
18.07
7.40
-3.53
-13.40
-21.39
-27.47
-32.34
-37.20
-43.23
-51.32
-61.86
-74.50
-88.01
-100.21
-108.21
-109.10
-100.80
-83.00
-57.37
-27.23
3.45
31.19
53.72
70.20
80.78
86.11
86.94
83.94
77.92
69.94
61.24
52.98
45.94
40.29
35.57
31.08
26.32
21.19
16.10
11.54
7.73
4.31
0.44
-4.79
-11.88
-20.57
-29.97
-38.91
-46.51
-52.50
-57.30
-61.81
-67.06
-73.88
-82.60
-92.73
-102.79
-110.31
-112.34
-106.29
-90.95
-67.08
-37.42
-5.87
23.67
48.32
66.73
78.88
85.53
87.66
86.16
81.92
75.89
69.13
62.67
57.26
53.10
49.87
46.95
43.74
39.97
35.69
31.19
26.71
22.17
17.23
11.42
4.48
-3.45
-11.80
-19.81
-26.89
-32.87
-38.09
-43.39
-49.80
-58.21
-68.90
-81.16
-93.07
-101.68
-103.81
-97.07
-80.84
-56.72
-28.17
0.65
26.04
45.76
59.18
66.89
69.98
69.43
66.08
60.64
54.01
47.21
41.19
36.58
33.46
31.50
30.14
28.86
27.28
25.18
22.35
18.61
13.82
7.99
1.34
-5.81
-13.05
-20.11
-26.87
-33.44
-40.11
-47.37
-55.83
-65.87
-77.22
-88.51
-97.26
-100.39
-95.28
-80.88
-58.26
-30.50
-1.63
24.60
45.63
60.49
69.43
73.28
72.95
69.22
62.87
54.82
46.20
38.17
31.65
27.08
24.38
22.97
22.10
20.96
18.96
15.75
11.28
5.72
-0.54
-7.09
-13.56
-19.73
-25.64
-31.47
-37.58
-44.39
-52.39
-61.91
-72.85
-84.23
-94.05
-99.54
-97.92
-87.46
-68.38
-42.94
-14.79
12.10
34.68
51.37
61.99
67.20
67.89
64.80
58.62
50.22
40.74
31.56
23.92
18.52
15.40
13.87
12.93
11.59
9.22
5.66
1.19
-3.70
-8.53
-13.05
-17.23
-21.30
-25.53
-30.23
-35.69
-42.23
-50.22
-59.85
-70.74
-81.53
-89.81
-92.58
-87.27
-72.79
-50.13
-22.22
7.01
33.87
55.82
71.80
81.98
87.09
87.98
85.34
79.84
72.22
63.46
54.58
46.46
39.69
34.42
30.48
27.47
24.92
22.30
19.10
14.87
9.30
2.41
-5.42
-13.55
-21.26
-28.13
-34.18
-39.92
-46.11
-53.61
-63.06
-74.49
-87.01
-98.66
-106.57
-107.66
-99.64
-81.98
-56.35
-26.16
4.34
31.48
52.97
68.11
77.42
81.85
82.28
79.33
73.59
65.87
57.28
49.04
42.14
37.08
33.72
31.50
29.67
27.60
24.88
21.32
16.94
11.84
6.16
0.02
-6.46
-13.22
-20.27
-27.66
-35.57
-44.36
-54.43
-66.01
-78.63
-90.72
-99.63
-102.23
-95.98
-80.11
-56.10
-27.38
1.86
27.97
48.71
63.48
72.69
77.12
77.39
73.97
67.48
58.89
49.58
40.94
34.06
29.42
26.78
25.34
24.07
22.02
18.56
13.56
7.36
0.61
-6.07
-12.33
-18.23
-24.17
-30.71
-38.39
-47.52
-58.28
-70.46
-83.32
-95.32
-104.07
-106.81
-101.21
-86.32
-63.17
-34.60
-4.48
23.48
46.71
64.12
75.86
82.73
85.52
84.77
80.86
74.28
65.89
56.87
48.49
41.71
36.93
33.85
31.74
29.66
26.79
22.63
17.03
10.12
2.18
-6.39
-15.25
-24.08
-32.73
-41.17
-49.57
-58.35
-68.09
-79.27
-91.84
-104.65
-115.34
-120.75
-117.90
-105.13
-82.94
-53.94
-22.00
9.02
36.30
58.55
75.61
87.92
95.85
99.61
99.42
95.89
90.00
83.03
76.10
69.86
64.44
59.60
55.05
50.70
46.64
42.97
39.48
35.59
30.53
23.66
14.83
4.52
-6.36
-16.84
-26.33
-34.82
-42.88
-51.46
-61.56
-73.80
-87.92
-102.55
-115.06
-122.17
-120.83
-109.33
-88.09
-59.61
-27.76
3.54
31.33
54.20
72.04
85.34
94.55
99.81
101.12
98.73
93.47
86.64
79.74
73.87
69.48
66.29
63.55
60.50
56.73
52.31
47.65
43.22
39.21
35.33
30.97
25.42
18.17
9.13
-1.29
-12.30
-23.01
-32.66
-40.85
-47.70
-53.75
-59.87
-67.04
-76.09
-87.41
-100.57
-114.07
-125.30
-131.02
-128.22
-115.27
-92.66
-63.04
-30.44
1.03
28.39
50.33
66.98
79.14
87.55
92.53
94.17
92.67
88.71
83.37
77.78
72.81
68.85
65.76
63.14
60.57
57.75
54.61
51.29
47.90
44.44
40.74
36.45
31.21
24.74
16.99
8.14
-1.38
-11.04
-20.27
-28.62
-35.87
-42.14
-47.82
-53.54
-59.98
-67.78
-77.36
-88.73
-101.23
-113.28
-122.35
-125.47
-120.13
-105.24
-81.86
-52.90
-22.33
6.17
30.26
49.12
63.11
72.89
78.89
81.13
79.66
74.94
68.08
60.63
54.13
49.55
47.09
46.19
45.87
45.18
43.50
40.64
36.79
32.32
27.57
22.72
17.78
12.52
6.64
-0.11
-7.81
-16.23
-24.89
-33.23
-40.80
-47.46
-53.44
-59.22
-65.42
-72.66
-81.37
-91.68
-103.13
-114.37
-123.19
-126.83
-122.75
-109.60
-87.86
-59.86
-29.15
0.68
26.91
48.24
64.58
76.47
84.49
88.97
90.13
88.35
84.34
79.12
73.70
68.80
64.73
61.40
58.57
56.05
53.83
51.94
50.31
48.63
46.38
43.01
38.16
31.85
24.52
16.78
9.23
2.15
-4.55
-11.24
-18.34
-26.04
-34.18
-42.34
-50.01
-56.86
-62.89
-68.51
-74.47
-81.63
-90.63
-101.52
-113.35
-124.06
-130.75
-130.49
-121.23
-102.72
-76.70
-46.44
-15.73
12.33
35.95
54.71
69.02
79.42
86.18
89.35
89.06
85.93
81.04
75.74
71.15
67.85
65.78
64.45
63.26
61.77
59.88
57.70
55.46
53.24
50.89
48.00
44.08
38.79
32.13
24.57
16.87
9.80
3.80
-1.29
-6.10
-11.50
-18.18
-26.26
-35.27
-44.33
-52.48
-59.07
-64.05
-67.90
-71.51
-75.90
-81.93
-90.14
-100.43
-111.83
-122.31
-129.07
-129.08
-120.17
-101.83
-75.62
-44.85
-13.52
14.82
37.97
55.23
67.03
74.26
77.70
77.93
75.45
70.96
65.46
60.00
55.48
52.30
50.38
49.25
48.42
47.55
46.54
45.42
44.10
42.35
39.76
35.96
30.82
24.57
17.72
10.88
4.41
-1.68
-7.74
-14.26
-21.54
-29.50
-37.71
-45.50
-52.35
-58.07
-62.97
-67.70
-73.19
-80.29
-89.50
-100.55
-112.06
-121.55
-125.90
-122.27
-109.16
-87.14
-58.79
-27.93
1.59
26.99
47.04
61.84
72.15
78.71
81.97
82.23
79.89
75.73
70.83
66.22
62.55
59.93
57.98
56.16
54.17
52.04
50.08
48.62
47.63
46.67
44.97
41.73
36.51
29.47
21.34
13.14
5.78
-0.34
-5.52
-10.53
-16.29
-23.38
-31.75
-40.76
-49.41
-56.94
-63.08
-68.19
-73.13
-78.93
-86.44
-96.00
-107.18
-118.53
-127.60
-131.44
-127.35
-113.86
-91.42
-62.48
-30.75
-0.08
26.64
48.01
64.00
75.25
82.47
86.14
86.58
84.30
80.08
75.02
70.13
66.11
63.15
61.04
59.34
57.71
56.03
54.37
52.87
51.53
50.10
48.08
44.87
40.04
33.60
26.03
18.19
10.94
4.79
-0.35
-5.11
-10.41
-16.97
-24.97
-33.91
-42.86
-50.83
-57.30
-62.41
-66.95
-72.11
-78.97
-88.17
-99.40
-111.23
-121.19
-126.17
-123.37
-111.15
-89.86
-61.84
-30.79
-0.66
25.48
46.11
61.11
71.24
77.44
80.41
80.55
78.25
74.06
68.81
63.42
58.62
54.84
52.08
50.07
48.51
47.09
45.68
44.16
42.37
40.11
37.11
33.24
28.53
23.16
17.38
11.30
4.89
-1.96
-9.32
-17.08
-24.89
-32.30
-38.93
-44.68
-49.83
-54.97
-60.86
-68.24
-77.56
-88.61
-100.23
-110.22
-115.68
-113.79
-102.85
-82.99
-56.37
-26.63
2.36
27.51
47.24
61.44
70.79
76.05
77.68
75.91
71.07
63.96
55.92
48.52
43.00
39.86
38.74
38.63
38.39
37.23
34.94
31.87
28.59
25.50
22.58
19.36
15.17
9.42
1.94
-6.91
-16.34
-25.40
-33.34
-39.83
-45.07
-49.75
-54.75
-61.00
-69.23
-79.74
-92.13
-105.00
-115.94
-121.91
-120.04
-108.65
-87.99
-60.34
-29.40
0.84
27.27
48.23
63.49
73.74
79.89
82.69
82.60
80.05
75.63
70.17
64.60
59.70
55.95
53.33
51.44
49.68
47.51
44.63
41.09
37.15
33.18
29.34
25.53
21.35
16.28
9.94
2.28
-6.32
-15.21
-23.69
-31.30
-37.98
-44.10
-50.26
-57.13
-65.29
-75.10
-86.57
-99.07
-111.12
-120.40
-124.12
-119.78
-106.18
-83.99
-55.70
-24.95
4.61
30.31
50.86
66.23
77.05
84.04
87.73
88.47
86.59
82.62
77.33
71.60
66.22
61.71
58.27
55.80
54.02
52.59
51.19
49.51
47.27
44.25
40.29
35.41
29.75
23.53
16.93
10.05
2.90
-4.54
-12.20
-19.96
-27.60
-35.00
-42.05
-48.78
-55.33
-62.00
-69.35
-78.01
-88.38
-100.17
-111.93
-121.07
-124.42
-119.29
-104.53
-81.14
-52.04
-21.16
7.79
32.34
51.52
65.61
75.45
81.79
85.09
85.59
83.65
79.88
75.18
70.43
66.29
62.97
60.40
58.34
56.64
55.26
54.14
53.06
51.58
49.17
45.40
40.21
33.94
27.18
20.48
14.10
7.92
1.59
-5.26
-12.79
-20.82
-28.96
-36.79
-44.01
-50.55
-56.60
-62.53
-68.92
-76.43
-85.62
-96.46
-107.89
-117.61
-122.45
-119.37
-106.63
-84.73
-56.38
-25.67
3.35
27.89
46.87
60.62
70.04
75.86
78.41
77.82
74.41
68.98
62.71
56.81
52.18
49.14
47.47
46.60
45.87
44.73
42.92
40.40
37.32
33.90
30.25
26.31
21.86
16.62
10.38
3.18
-4.69
-12.78
-20.61
-27.87
-34.46
-40.56
-46.45
-52.51
-59.13
-66.75
-75.83
-86.55
-98.41
-109.92
-118.50
-121.08
-115.08
-99.47
-75.45
-46.12
-15.56
12.53
35.83
53.69
66.64
75.63
81.38
84.23
84.40
82.28
78.56
74.11
69.67
65.64
62.13
59.08
56.48
54.39
52.87
51.77
50.70
49.06
46.31
42.12
36.59
30.12
23.27
16.52
10.07
3.75
-2.76
-9.86
-17.70
-26.13
-34.68
-42.76
-49.88
-55.92
-61.21
-66.52
-72.86
-81.17
-91.88
-104.38
-116.80
-126.17
-129.12
-123.00
-106.90
-82.15
-52.03
-20.66
8.25
32.39
51.10
64.84
74.50
80.72
83.79
83.90
81.55
77.59
73.14
69.15
66.08
63.83
61.91
59.83
57.40
54.82
52.48
50.71
49.45
48.18
46.07
42.33
36.62
29.22
20.97
12.91
5.84
-0.00
-5.03
-10.05
-15.88
-22.95
-31.09
-39.68
-47.89
-55.07
-60.97
-65.91
-70.66
-76.28
-83.75
-93.64
-105.59
-118.06
-128.38
-133.25
-129.75
-116.40
-93.84
-64.78
-33.19
-2.99
23.04
43.73
59.27
70.50
78.17
82.66
84.10
82.78
79.39
75.01
70.77
67.40
65.05
63.35
61.72
59.81
57.67
55.68
54.24
53.41
52.79
51.59
48.99
44.46
38.07
30.42
22.38
14.77
8.03
2.07
-3.56
-9.53
-16.31
-24.01
-32.29
-40.53
-48.10
-54.69
-60.46
-65.95
-71.96
-79.30
-88.45
-99.31
-110.88
-121.10
-127.13
-126.05
-115.87
-96.43
-69.72
-39.33
-9.30
17.13
38.28
54.00
65.04
72.29
76.27
77.15
75.12
70.66
64.71
58.50
53.18
49.53
47.73
47.34
47.48
47.27
46.09
43.82
40.73
37.24
33.55
29.59
25.01
19.45
12.71
4.87
-3.77
-12.72
-21.46
-29.50
-36.47
-42.33
-47.31
-52.01
-57.26
-63.94
-72.67
-83.51
-95.65
-107.18
-115.38
-117.24
-110.44
-94.30
-70.21
-41.35
-11.68
15.29
37.46
54.29
66.33
74.43
79.13
80.57
78.83
74.35
68.17
61.70
56.29
52.69
50.83
49.91
48.86
46.83
43.57
39.43
35.15
31.31
28.09
25.04
21.30
16.02
8.77
-0.25
-10.19
-19.98
-28.69
-35.94
-42.01
-47.68
-53.89
-61.50
-71.03
-82.55
-95.52
-108.67
-119.80
-126.12
-124.84
-114.17
-94.12
-66.78
-35.81
-5.27
21.62
43.23
59.50
71.27
79.44
84.50
86.44
85.29
81.45
75.90
69.90
64.60
60.64
57.90
55.81
53.61
50.80
47.30
43.43
39.64
36.24
33.14
29.86
25.66
19.88
12.20
2.83
-7.52
-17.86
-27.28
-35.25
-41.82
-47.51
-53.20
-59.83
-68.15
-78.54
-90.82
-104.05
-116.34
-125.05
-127.29
-120.77
-104.72
-80.40
-50.86
-20.05
8.43
32.34
51.06
65.21
75.80
83.50
88.41
90.29
89.10
85.29
79.84
73.92
68.53
64.23
61.03
58.65
56.61
54.51
52.05
49.11
45.71
41.96
37.94
33.61
28.75
22.99
16.02
7.77
-1.48
-11.08
-20.33
-28.68
-35.95
-42.39
-48.60
-55.23
-62.92
-72.12
-83.00
-95.20
-107.57
-118.05
-123.89
-122.43
-111.95
-92.61
-66.51
-37.16
-8.26
17.37
38.40
54.78
67.09
75.78
80.92
82.37
80.30
75.51
69.43
63.63
59.29
56.76
55.55
54.67
53.17
50.59
47.10
43.27
39.76
36.85
34.24
31.12
26.55
19.89
11.13
0.99
-9.33
-18.66
-26.32
-32.35
-37.45
-42.68
-49.06
-57.27
-67.51
-79.35
-91.69
-102.61
-109.63
-110.22
-102.62
-86.55
-63.56
-36.63
-9.28
15.44
35.71
51.03
61.76
68.56
71.92
72.12
69.49
64.71
58.77
52.78
47.55
43.31
39.73
36.24
32.47
28.57
25.03
22.38
20.67
19.29
17.13
13.06
6.44
-2.57
-13.06
-23.72
-33.42
-41.51
-48.09
-53.88
-60.01
-67.62
-77.45
-89.37
-102.14
-113.40
-120.10
-119.30
-109.23
-89.94
-63.57
-33.71
-4.25
21.69
42.51
58.07
69.05
76.27
80.22
81.11
79.15
74.87
69.12
62.89
56.97
51.77
47.35
43.54
40.08
36.79
33.40
29.65
25.23
19.92
13.63
6.46
-1.34
-9.49
-17.80
-26.22
-34.89
-44.13
-54.39
-66.06
-79.07
-92.55
-104.58
-112.46
-113.43
-105.60
-88.76
-64.62
-36.30
-7.32
19.36
42.02
60.15
73.97
83.88
90.15
92.91
92.41
89.27
84.42
78.87
73.37
68.25
63.34
58.32
52.99
47.50
42.31
37.86
34.25
31.00
27.18
21.74
14.06
4.22
-6.95
-18.19
-28.32
-36.77
-43.73
-50.09
-57.12
-66.04
-77.57
-91.51
-106.49
-119.93
-128.52
-129.13
-119.79
-100.59
-73.69
-42.65
-11.29
17.46
42.00
62.00
77.66
89.25
96.86
100.55
100.72
98.21
94.17
89.70
85.53
81.92
78.72
75.60
72.31
68.85
65.43
62.28
59.49
56.78
53.56
49.10
42.97
35.29
26.72
18.17
10.34
3.41
-3.05
-9.78
-17.45
-26.29
-36.01
-45.91
-55.20
-63.30
-70.00
-75.67
-81.12
-87.47
-95.79
-106.64
-119.58
-132.83
-143.45
-148.00
-143.59
-128.93
-104.88
-74.28
-41.08
-9.01
19.32
42.82
61.59
76.19
87.05
94.24
97.71
97.64
94.72
90.08
84.96
80.37
76.77
74.09
71.93
69.86
67.64
65.32
63.10
61.15
59.43
57.55
54.90
50.85
45.03
37.54
29.00
20.28
12.26
5.42
-0.32
-5.53
-11.04
-17.55
-25.39
-34.32
-43.68
-52.65
-60.55
-67.08
-72.44
-77.24
-82.38
-88.78
-97.19
-107.85
-120.10
-132.23
-141.51
-144.72
-139.13
-123.42
-98.41
-66.93
-32.96
-0.43
27.83
50.62
68.00
80.60
89.02
93.52
94.29
91.78
87.02
81.41
76.35
72.68
70.46
69.11
67.81
65.98
63.51
60.69
57.96
55.56
53.31
50.70
47.14
42.16
35.65
27.96
19.74
11.78
4.68
-1.34
-6.63
-11.88
-17.91
-25.21
-33.69
-42.70
-51.28
-58.61
-64.38
-68.95
-73.17
-78.13
-84.76
-93.56
-104.29
-115.73
-125.73
-131.45
-130.12
-119.95
-100.87
-74.74
-44.79
-14.60
12.89
36.01
54.30
68.01
77.54
83.14
85.05
83.69
79.89
74.79
69.55
65.03
61.61
59.17
57.37
55.82
54.29
52.77
51.32
49.88
48.20
45.76
42.04
36.79
30.15
22.75
15.40
8.74
2.97
-2.26
-7.64
-13.84
-21.12
-29.20
-37.42
-44.98
-51.42
-56.78
-61.59
-66.73
-73.15
-81.52
-91.95
-103.65
-114.79
-122.64
-124.18
-117.02
-100.39
-75.64
-45.93
-15.35
12.49
35.33
52.54
64.69
72.73
77.36
78.86
77.38
73.31
67.51
61.15
55.37
50.91
47.98
46.28
45.28
44.39
43.17
41.33
38.80
35.66
32.11
28.34
24.40
20.16
15.35
9.65
2.94
-4.65
-12.64
-20.39
-27.29
-32.94
-37.29
-40.71
-43.90
-47.80
-53.36
-61.26
-71.62
-83.62
-95.41
-104.30
-107.40
-102.46
-88.71
-67.23
-40.73
-12.69
13.57
35.71
52.56
63.94
70.19
71.89
69.74
64.68
57.92
50.80
44.44
39.55
36.20
33.90
31.97
29.77
27.04
23.91
20.77
17.98
15.56
13.15
10.03
5.52
-0.68
-8.29
-16.48
-24.29
-31.00
-36.51
-41.34
-46.43
-52.82
-61.27
-72.00
-84.40
-96.89
-107.03
-112.02
-109.39
-97.89
-78.03
-52.14
-23.64
3.89
27.69
46.31
59.51
67.77
71.78
72.17
69.53
64.57
58.23
51.62
45.73
41.14
37.89
35.54
33.48
31.24
28.71
26.04
23.43
20.82
17.76
13.56
7.64
-0.11
-9.21
-18.73
-27.66
-35.36
-41.83
-47.71
-54.08
-62.07
-72.47
-85.15
-98.79
-110.82
-117.88
-116.87
-106.00
-85.67
-58.45
-28.29
0.81
25.98
45.99
61.07
72.13
79.97
84.93
86.94
85.94
82.25
76.69
70.44
64.70
60.29
57.43
55.76
54.56
53.16
51.14
48.40
45.12
41.49
37.53
33.09
27.85
21.50
13.89
5.09
-4.51
-14.31
-23.70
-32.19
-39.61
-46.18
-52.45
-59.09
-66.74
-75.91
-86.83
-99.27
-112.16
-123.44
-130.23
-129.59
-119.50
-99.78
-72.41
-40.92
-9.38
18.93
42.22
60.16
73.41
82.83
89.02
92.28
92.84
91.18
88.01
84.23
80.58
77.42
74.69
72.10
69.34
66.34
63.33
60.67
58.65
57.20
55.84
53.74
50.00
44.05
35.94
26.40
16.64
7.90
0.93
-4.35
-8.80
-13.64
-19.89
-27.87
-37.10
-46.54
-55.05
-61.95
-67.21
-71.46
-75.77
-81.34
-89.15
-99.67
-112.41
-125.71
-136.73
-141.97
-138.31
-124.14
-100.11
-69.08
-35.28
-2.95
24.85
46.82
63.16
74.83
82.79
87.59
89.45
88.66
85.85
82.03
78.28
75.38
73.46
72.09
70.57
68.31
65.25
61.81
58.69
56.43
55.10
54.12
52.54
49.40
44.19
37.05
28.73
20.27
12.57
6.01
0.36
-5.07
-11.06
-18.11
-26.22
-34.93
-43.50
-51.29
-57.97
-63.64
-68.78
-74.08
-80.34
-88.26
-98.18
-109.71
-121.45
-130.90
-135.02
-131.02
-117.51
-95.09
-66.33
-34.97
-4.77
21.53
42.64
58.53
69.78
77.04
80.81
81.49
79.63
76.10
71.89
67.92
64.68
62.21
60.22
58.38
56.56
54.86
53.49
52.53
51.77
50.68
48.61
45.02
39.74
33.08
25.75
18.58
12.18
6.69
1.66
-3.71
-10.17
-18.05
-27.06
-36.38
-44.99
-52.21
-57.93
-62.72
-67.58
-73.68
-81.89
-92.35
-104.18
-115.28
-122.70
-123.29
-114.77
-96.63
-70.53
-39.88
-8.82
18.98
41.26
57.37
67.86
73.77
76.06
75.36
72.20
67.20
61.29
55.52
50.82
47.70
46.08
45.45
45.10
44.35
42.81
40.36
37.14
33.43
29.49
25.50
21.45
17.09
12.04
5.95
-1.32
-9.62
-18.48
-27.29
-35.53
-42.91
-49.41
-55.29
-61.00
-67.15
-74.43
-83.46
-94.39
-106.53
-117.97
-125.80
-126.82
-118.62
-100.60
-74.37
-43.36
-11.79
16.69
39.82
57.03
68.95
76.68
81.09
82.63
81.48
77.95
72.72
66.89
61.61
57.70
55.39
54.24
53.44
52.22
50.12
47.08
43.33
39.22
34.97
30.66
26.16
21.23
15.52
8.76
0.83
-8.11
-17.60
-27.03
-35.84
-43.73
-50.77
-57.39
-64.21
-71.94
-81.22
-92.35
-105.01
-117.85
-128.38
-133.38
-129.86
-116.24
-93.13
-63.40
-31.19
-0.57
25.70
46.59
62.43
74.07
82.12
86.72
87.77
85.57
80.96
75.30
69.94
65.80
63.06
61.23
59.51
57.20
54.02
50.10
45.93
42.01
38.58
35.45
32.03
27.54
21.29
13.00
2.96
-8.03
-18.91
-28.70
-36.87
-43.49
-49.14
-54.75
-61.37
-69.87
-80.74
-93.68
-107.36
-119.33
-126.36
-125.30
-114.21
-93.15
-64.45
-32.05
-0.25
27.55
49.63
65.89
77.21
84.63
88.82
90.07
88.61
84.96
80.02
74.89
70.43
67.05
64.58
62.58
60.59
58.30
55.65
52.67
49.35
45.66
41.58
37.15
32.42
27.36
21.81
15.43
7.95
-0.69
-10.18
-19.93
-29.30
-37.82
-45.37
-52.17
-58.69
-65.56
-73.46
-83.00
-94.41
-107.05
-119.09
-127.56
-129.06
-120.89
-102.30
-75.04
-42.94
-10.64
17.94
40.70
57.43
69.08
76.78
81.12
82.21
80.12
75.45
69.40
63.47
58.86
56.03
54.62
53.75
52.50
50.28
47.05
43.20
39.33
35.92
33.05
30.32
26.94
22.10
15.26
6.55
-3.34
-13.34
-22.51
-30.36
-36.95
-42.85
-48.80
-55.61
-63.92
-74.19
-86.37
-99.64
-112.09
-120.90
-122.93
-115.79
-98.81
-73.53
-43.34
-12.43
15.51
38.25
55.21
67.07
74.90
79.54
81.31
80.30
76.76
71.43
65.45
60.03
56.03
53.63
52.39
51.48
50.13
47.87
44.67
40.79
36.62
32.42
28.23
23.81
18.80
12.80
5.57
-2.87
-12.18
-21.77
-30.99
-39.31
-46.48
-52.69
-58.48
-64.70
-72.23
-81.81
-93.55
-106.67
-119.25
-128.46
-131.21
-125.10
-109.33
-85.15
-55.57
-24.44
4.67
29.41
48.92
63.43
73.66
80.23
83.55
83.93
81.88
78.22
73.86
69.54
65.59
61.89
58.15
54.16
50.02
46.05
42.52
39.45
36.46
32.93
28.24
22.05
14.47
6.03
-2.53
-10.56
-17.70
-24.02
-29.87
-35.66
-41.51
-47.15
-52.02
-55.50
-57.32
-57.79
-57.76
-58.48
-61.28
-67.19
-76.42
-88.05
-99.75
-108.17
-109.73
-101.84
-83.92
-57.82
-27.22
3.57
31.07
53.44
70.54
83.23
92.54
99.07
102.89
103.92
102.25
98.46
93.44
88.20
83.54
79.82
76.98
74.66
72.44
70.08
67.54
64.97
62.50
60.07
57.38
53.93
49.24
43.06
35.54
27.22
18.90
11.37
5.09
-0.01
-4.56
-9.45
-15.48
-23.03
-31.82
-41.12
-50.05
-57.93
-64.52
-70.07
-75.17
-80.62
-87.24
-95.71
-106.26
-118.28
-130.01
-138.59
-140.71
-133.68
-116.46
-90.34
-58.64
-25.65
4.69
29.85
49.09
62.92
72.35
78.22
80.98
80.89
78.48
74.66
70.52
66.99
64.44
62.68
61.18
59.50
57.53
55.48
53.65
52.12
50.62
48.62
45.53
41.04
35.17
28.37
21.28
14.50
8.32
2.60
-3.19
-9.67
-17.23
-25.76
-34.64
-43.02
-50.23
-56.17
-61.34
-66.72
-73.40
-82.22
-93.35
-105.98
-118.11
-126.80
-128.85
-121.76
-104.83
-79.52
-49.21
-18.09
10.15
33.24
50.58
62.73
70.61
74.89
75.90
73.87
69.33
63.28
56.99
51.66
48.02
46.17
45.62
45.60
45.39
44.53
42.90
40.59
37.74
34.40
30.48
25.79
20.11
13.34
5.53
-3.06
-12.01
-20.82
-29.06
-36.45
-43.03
-49.08
-55.12
-61.80
-69.72
-79.35
-90.76
-103.32
-115.38
-124.34
-127.16
-121.28
-105.70
-81.52
-51.85
-20.70
8.16
32.31
50.96
64.55
74.00
80.05
83.02
82.98
80.14
75.14
69.05
63.10
58.37
55.39
54.01
53.52
52.96
51.54
48.87
45.10
40.70
36.11
31.52
26.72
21.18
14.37
6.03
-3.66
-14.02
-24.09
-33.06
-40.52
-46.65
-52.11
-57.78
-64.47
-72.76
-82.95
-94.97
-108.14
-120.83
-130.45
-133.86
-128.34
-112.74
-88.11
-57.57
-25.25
5.02
30.76
51.18
66.66
78.02
85.87
90.48
92.00
90.83
87.70
83.58
79.40
75.71
72.67
70.10
67.73
65.39
63.16
61.20
59.65
58.41
56.97
54.52
50.30
43.91
35.61
26.34
17.35
9.65
3.53
-1.64
-7.04
-13.82
-22.50
-32.66
-43.20
-52.88
-60.90
-67.29
-72.77
-78.41
-85.32
-94.28
-105.57
-118.60
-131.66
-141.92
-145.91
-140.63
-124.68
-99.06
-67.01
-32.94
-0.89
26.51
48.46
65.41
78.21
87.42
93.15
95.47
94.75
91.88
87.98
84.13
80.90
78.30
75.97
73.46
70.58
67.45
64.49
62.11
60.42
59.09
57.32
54.24
49.22
42.22
33.81
25.07
17.04
10.33
4.88
-0.07
-5.56
-12.48
-21.14
-31.09
-41.31
-50.65
-58.36
-64.30
-69.08
-73.72
-79.37
-86.98
-97.09
-109.51
-123.03
-135.24
-142.80
-142.34
-131.60
-110.47
-81.28
-48.04
-15.13
14.06
37.88
56.29
70.05
79.96
86.43
89.59
89.63
87.21
83.32
79.11
75.41
72.57
70.43
68.53
66.51
64.31
62.18
60.48
59.34
58.46
57.10
54.42
49.79
43.12
34.94
26.23
18.03
11.07
5.52
0.89
-3.77
-9.43
-16.72
-25.54
-35.14
-44.41
-52.40
-58.75
-63.86
-68.71
-74.49
-82.23
-92.35
-104.37
-116.64
-126.47
-130.58
-126.07
-111.58
-87.95
-58.18
-26.44
3.28
28.30
47.70
61.87
71.69
77.86
80.63
80.14
76.77
71.43
65.37
59.86
55.75
53.27
52.08
51.46
50.68
49.18
46.76
43.46
39.51
35.19
30.70
26.12
21.41
16.37
10.67
4.03
-3.71
-12.36
-21.43
-30.26
-38.31
-45.34
-51.54
-57.40
-63.50
-70.48
-78.90
-89.05
-100.62
-112.32
-121.68
-125.47
-120.69
-105.77
-81.48
-50.90
-18.51
11.38
35.92
54.23
67.05
75.74
81.38
84.38
84.68
82.29
77.72
72.06
66.55
62.18
59.27
57.47
56.03
54.23
51.66
48.32
44.45
40.32
36.10
31.76
27.19
22.16
16.46
9.89
2.33
-6.15
-15.28
-24.54
-33.42
-41.54
-48.80
-55.44
-61.94
-68.89
-76.95
-86.64
-98.09
-110.63
-122.45
-130.75
-132.35
-124.80
-107.39
-81.64
-50.92
-19.32
9.63
33.77
52.49
66.19
75.66
81.51
84.16
84.00
81.60
77.84
73.64
69.75
66.57
64.11
62.09
60.16
58.05
55.66
52.98
50.00
46.68
42.91
38.61
33.71
28.24
22.17
15.48
8.06
-0.14
-9.02
-18.28
-27.46
-36.07
-43.87
-50.89
-57.49
-64.13
-71.37
-79.69
-89.47
-100.77
-112.88
-124.03
-131.42
-131.91
-123.06
-104.33
-77.45
-46.00
-14.23
14.34
37.75
55.67
68.83
78.17
84.38
87.72
88.33
86.50
82.85
78.18
73.34
68.97
65.40
62.63
60.50
58.81
57.40
56.19
54.97
53.38
50.86
46.89
41.17
33.91
25.73
17.46
9.74
2.79
-3.67
-10.18
-17.28
-25.18
-33.68
-42.29
-50.42
-57.72
-64.24
-70.48
-77.27
-85.55
-95.86
-107.87
-120.01
-129.49
-132.99
-127.70
-112.47
-88.40
-58.67
-27.45
1.37
25.26
43.41
56.32
64.97
70.17
72.31
71.54
68.17
62.91
56.80
50.94
46.07
42.44
39.78
37.55
35.21
32.45
29.22
25.63
21.84
17.87
13.66
9.10
4.21
-0.91
-6.07
-11.09
-15.84
-20.22
-24.15
-27.51
-30.25
-32.45
-34.39
-36.58
-39.67
-44.35
-51.14
-60.18
-70.84
-81.54
-89.83
-92.81
-88.04
-74.47
-53.02
-26.40
1.64
27.58
48.98
65.00
75.99
82.93
86.79
88.23
87.65
85.33
81.70
77.28
72.66
68.38
64.76
61.80
59.27
56.74
53.82
50.32
46.26
41.84
37.22
32.47
27.47
22.03
15.95
9.13
1.50
-6.94
-16.07
-25.61
-35.13
-44.04
-51.87
-58.48
-64.16
-69.63
-75.85
-83.77
-94.01
-106.42
-119.71
-131.33
-137.90
-136.11
-123.95
-101.64
-71.75
-38.51
-6.34
21.44
43.30
59.36
70.64
78.17
82.59
84.19
83.19
80.14
75.86
71.31
67.27
64.10
61.70
59.66
57.53
55.02
52.06
48.79
45.33
41.72
37.80
33.33
28.10
22.05
15.15
7.45
-0.99
-10.07
-19.55
-29.00
-37.96
-46.03
-53.13
-59.54
-65.86
-72.85
-81.28
-91.77
-104.36
-118.20
-131.25
-140.40
-142.23
-134.11
-115.38
-87.75
-54.92
-21.37
9.02
33.95
52.89
66.57
76.08
82.26
85.52
86.01
84.06
80.32
75.78
71.45
68.09
65.90
64.58
63.55
62.19
60.07
57.12
53.44
49.33
44.96
40.37
35.41
29.78
23.13
15.29
6.32
-3.40
-13.26
-22.61
-31.04
-38.44
-45.10
-51.56
-58.41
-66.32
-75.84
-87.32
-100.52
-114.27
-126.23
-133.18
-131.95
-120.49
-98.89
-69.59
-36.67
-4.59
23.20
45.03
60.99
72.18
79.79
84.55
86.63
86.07
83.22
78.92
74.29
70.29
67.35
65.27
63.45
61.26
58.36
54.85
51.09
47.45
44.10
40.92
37.48
33.15
27.33
19.65
10.17
-0.56
-11.61
-22.03
-31.09
-38.61
-44.97
-50.96
-57.48
-65.43
-75.47
-87.84
-102.04
-116.52
-128.57
-134.84
-132.23
-119.02
-95.66
-64.77
-30.41
3.08
32.25
55.21
71.56
81.94
87.45
89.18
88.02
84.73
80.04
74.69
69.42
64.78
61.06
58.23
56.02
54.05
52.02
49.75
47.15
44.21
40.89
37.14
32.96
28.25
22.88
16.68
9.45
1.20
-7.76
-16.84
-25.36
-32.84
-39.21
-44.85
-50.38
-56.52
-63.87
-72.85
-83.67
-96.13
-109.21
-120.83
-128.00
-127.51
-117.04
-96.22
-66.99
-33.18
0.76
31.04
55.44
73.35
85.27
92.06
94.48
93.19
88.93
82.72
75.79
69.18
63.57
59.17
55.85
53.41
51.74
50.80
50.41
50.20
49.60
48.01
45.01
40.48
34.59
27.77
20.49
13.14
5.96
-1.10
-8.22
-15.66
-23.56
-31.78
-39.97
-47.76
-54.95
-61.65
-68.26
-75.41
-83.68
-93.51
-104.78
-116.49
-126.49
-131.72
-128.92
-115.93
-92.61
-61.24
-25.91
8.73
38.92
62.56
79.23
89.57
94.57
95.07
91.83
85.65
77.64
69.12
61.42
55.42
51.48
49.35
48.42
48.00
47.53
46.73
45.50
43.70
41.12
37.48
32.59
26.56
19.91
13.29
7.30
2.12
-2.57
-7.48
-13.36
-20.69
-29.43
-39.01
-48.49
-56.99
-63.93
-69.41
-74.19
-79.51
-86.64
-96.24
-107.69
-118.94
-126.69
-127.27
-117.90
-97.82
-68.74
-34.42
0.41
31.57
56.39
73.99
84.89
90.11
90.65
87.36
81.08
72.98
64.47
56.98
51.44
48.07
46.40
45.58
44.74
43.28
40.98
37.92
34.37
30.71
27.21
23.90
20.44
16.25
10.69
3.45
-5.25
-14.69
-23.93
-32.20
-39.17
-45.08
-50.48
-56.07
-62.45
-70.09
-79.27
-89.88
-101.06
-110.97
-116.87
-115.78
-105.53
-85.66
-57.89
-25.72
6.68
35.61
58.74
75.23
85.32
89.69
89.06
84.20
76.13
66.32
56.50
48.22
42.36
38.88
36.89
35.19
32.82
29.47
25.47
21.51
18.19
15.59
13.24
10.24
5.68
-0.94
-9.46
-19.06
-28.61
-37.10
-44.08
-49.76
-54.95
-60.71
-68.10
-77.79
-89.86
-103.39
-116.34
-125.63
-127.83
-120.24
-101.96
-74.51
-41.45
-7.32
23.74
48.99
67.36
79.03
84.83
85.72
82.58
76.38
68.23
59.34
50.82
43.46
37.61
33.22
29.93
27.34
25.09
22.91
20.62
17.97
14.63
10.19
4.39
-2.77
-10.93
-19.45
-27.68
-35.29
-42.41
-49.69
-58.15
-68.68
-81.59
-96.02
-109.70
-119.25
-121.04
-112.42
-92.87
-64.38
-30.95
2.63
32.27
55.51
71.68
81.39
85.79
85.98
82.85
77.12
69.61
61.22
52.84
45.25
38.91
34.03
30.52
28.09
26.29
24.57
22.37
19.18
14.63
8.59
1.20
-7.14
-15.95
-24.71
-33.21
-41.54
-50.19
-59.93
-71.51
-85.24
-100.37
-114.86
-125.46
-128.53
-121.28
-102.91
-75.12
-41.68
-7.16
24.47
50.84
71.26
86.05
95.79
100.84
101.43
98.05
91.81
84.24
76.90
70.80
66.08
62.20
58.38
54.10
49.40
44.75
40.71
37.49
34.69
31.36
26.42
19.11
9.40
-1.97
-13.79
-24.85
-34.43
-42.53
-49.83
-57.45
-66.63
-78.36
-92.91
-109.37
-125.43
-137.52
-141.71
-134.94
-116.26
-87.38
-52.22
-15.60
18.27
46.80
69.29
86.20
98.37
106.33
110.26
110.33
107.16
101.92
96.09
90.96
87.15
84.51
82.28
79.72
76.47
72.76
69.27
66.60
64.92
63.71
61.91
58.40
52.45
44.06
34.02
23.57
13.94
5.81
-0.94
-7.15
-13.97
-22.28
-32.22
-43.16
-53.97
-63.57
-71.43
-77.85
-83.71
-90.23
-98.56
-109.48
-123.05
-138.28
-152.83
-163.20
-165.47
-156.52
-135.29
-103.44
-65.00
-25.06
11.76
42.54
66.32
83.64
95.56
103.00
106.49
106.40
103.33
98.30
92.59
87.45
83.65
81.30
79.89
78.60
76.77
74.14
70.98
67.76
64.88
62.34
59.64
55.99
50.71
43.54
34.81
25.37
16.19
8.04
1.12
-5.03
-11.27
-18.50
-27.21
-37.22
-47.75
-57.75
-66.43
-73.55
-79.59
-85.50
-92.35
-101.05
-112.10
-125.40
-140.01
-153.99
-164.40
-167.83
-161.32
-143.50
-115.31
-80.03
-42.31
-6.80
23.12
45.97
61.86
71.83
77.03
78.33
76.40
72.00
66.15
60.01
54.60
50.47
47.67
45.87
44.64
43.72
43.03
42.58
42.25
41.76
40.61
38.32
34.52
29.12
22.38
14.87
7.30
0.27
-5.95
-11.56
-17.05
-22.97
-29.58
-36.73
-43.91
-50.66
-56.79
-62.61
-68.90
-76.63
-86.60
-98.96
-112.78
-125.89
-135.05
-136.80
-128.51
-109.42
-81.17
-47.33
-12.36
19.80
46.69
67.55
82.91
93.77
101.02
105.19
106.67
105.91
103.60
100.54
97.45
94.70
92.32
90.13
87.90
85.56
83.15
80.73
78.16
75.05
70.83
65.06
57.58
48.72
39.16
29.67
20.78
12.56
4.59
-3.75
-12.97
-23.16
-33.90
-44.48
-54.24
-62.82
-70.48
-77.96
-86.35
-96.67
-109.47
-124.28
-139.38
-151.84
-158.13
-155.14
-141.27
-117.18
-85.75
-51.22
-17.96
10.79
33.44
49.99
61.35
68.64
72.81
74.61
74.73
73.97
73.19
73.11
74.09
76.04
78.58
81.26
83.67
85.51
86.57
86.57
85.17
82.10
77.23
70.74
63.03
54.66
46.06
37.47
28.82
19.84
10.30
0.13
-10.46
-21.05
-31.15
-40.38
-48.65
-56.24
-63.75
-72.04
-81.95
-93.90
-107.35
-120.43
-130.05
-132.62
-125.22
-106.83
-78.90
-45.07
-10.01
21.98
48.14
67.51
80.55
88.36
92.04
92.36
89.98
85.60
80.16
74.66
69.95
66.46
64.12
62.51
61.12
59.58
57.73
55.60
53.21
50.42
46.98
42.62
37.25
31.00
24.14
16.93
9.45
1.65
-6.60
-15.22
-23.95
-32.42
-40.25
-47.31
-53.71
-59.81
-66.15
-73.38
-82.13
-92.80
-105.10
-117.61
-127.70
-131.96
-127.29
-112.04
-86.90
-54.86
-20.32
12.29
39.72
60.50
74.74
83.41
87.65
88.34
86.16
81.74
75.89
69.59
63.76
59.05
55.66
53.42
51.92
50.77
49.68
48.43
46.87
44.83
42.09
38.48
33.92
28.48
22.29
15.49
8.19
0.48
-7.51
-15.58
-23.41
-30.70
-37.26
-43.07
-48.40
-53.71
-59.58
-66.65
-75.40
-85.83
-97.18
-107.70
-114.78
-115.51
-107.71
-90.74
-66.06
-36.84
-7.03
19.86
41.61
57.54
68.03
73.84
75.58
73.66
68.54
61.13
52.80
45.09
39.27
35.88
34.60
34.53
34.55
33.82
32.04
29.43
26.52
23.80
21.38
18.85
15.51
10.66
4.01
-4.10
-12.78
-21.00
-27.98
-33.53
-38.05
-42.33
-47.22
-53.39
-61.20
-70.69
-81.46
-92.39
-101.52
-106.26
-104.03
-93.21
-73.91
-48.24
-19.72
7.79
31.27
49.13
61.16
67.91
70.11
68.37
63.34
55.94
47.53
39.66
33.55
29.70
27.71
26.65
25.45
23.47
20.69
17.51
14.47
11.80
9.28
6.31
2.15
-3.66
-11.05
-19.37
-27.64
-34.94
-40.85
-45.63
-50.14
-55.51
-62.74
-72.29
-83.82
-96.00
-106.52
-112.49
-111.11
-100.55
-80.77
-53.74
-23.00
7.34
33.74
54.05
67.60
74.85
76.76
74.42
68.96
61.60
53.71
46.54
40.92
37.00
34.29
31.99
29.38
26.18
22.57
18.95
15.64
12.60
9.41
5.44
0.17
-6.55
-14.40
-22.73
-30.85
-38.33
-45.14
-51.76
-58.96
-67.57
-78.12
-90.42
-103.13
-113.77
-119.11
-116.10
-103.10
-80.64
-51.52
-19.93
9.85
34.74
53.34
65.72
72.67
75.07
73.59
68.90
61.91
53.84
46.01
39.45
34.67
31.60
29.79
28.68
27.79
26.73
25.19
22.88
19.49
14.73
8.46
0.83
-7.73
-16.57
-25.03
-32.74
-39.80
-46.83
-54.81
-64.75
-77.09
-91.18
-105.01
-115.36
-118.66
-112.16
-95.04
-68.87
-37.26
-4.65
25.00
49.15
66.95
78.69
85.16
87.15
85.44
80.93
74.86
68.57
63.11
58.96
55.82
53.00
49.76
45.86
41.57
37.48
34.05
31.22
28.35
24.45
18.63
10.57
0.67
-10.11
-20.62
-30.03
-38.10
-45.25
-52.43
-60.82
-71.41
-84.54
-99.37
-113.69
-124.12
-126.99
-119.53
-101.08
-73.46
-40.52
-6.79
23.91
49.41
69.19
83.68
93.54
99.08
100.44
98.04
92.88
86.48
80.45
75.87
72.94
71.04
69.13
66.31
62.25
57.25
52.05
47.40
43.57
40.11
36.02
30.15
21.80
11.15
-0.82
-12.62
-22.98
-31.38
-38.20
-44.55
-51.80
-61.13
-73.09
-87.40
-102.71
-116.57
-125.72
-126.87
-117.77
-98.16
-70.20
-37.92
-5.92
22.11
44.31
60.69
72.40
80.65
86.03
88.45
87.65
83.80
77.86
71.26
65.47
61.34
58.90
57.45
56.02
53.85
50.66
46.68
42.40
38.24
34.31
30.30
25.60
19.58
11.86
2.50
-7.90
-18.38
-28.00
-36.14
-42.80
-48.53
-54.24
-60.91
-69.32
-79.88
-92.47
-106.26
-119.48
-129.48
-133.18
-127.92
-112.51
-87.84
-56.80
-23.46
8.24
35.51
57.17
73.34
84.74
92.08
95.84
96.39
94.25
90.28
85.50
80.84
76.86
73.67
71.06
68.72
66.47
64.31
62.34
60.57
58.75
56.34
52.69
47.33
40.21
31.83
23.05
14.78
7.57
1.36
-4.49
-10.90
-18.59
-27.76
-37.92
-48.09
-57.24
-64.73
-70.58
-75.53
-80.79
-87.69
-97.21
-109.46
-123.34
-136.33
-144.98
-145.67
-135.94
-115.42
-86.20
-52.24
-18.09
12.55
37.71
57.09
71.45
81.64
88.09
90.87
90.12
86.51
81.34
76.19
72.33
70.32
69.83
69.94
69.69
68.48
66.27
63.52
60.76
58.30
55.94
53.10
49.07
43.40
36.14
27.85
19.39
11.58
4.87
-0.83
-6.09
-11.71
-18.34
-26.23
-35.09
-44.17
-52.61
-59.76
-65.49
-70.27
-74.99
-80.73
-88.44
-98.63
-111.05
-124.37
-136.14
-143.12
-142.09
-130.92
-109.51
-80.03
-46.36
-12.84
17.03
41.40
60.03
73.59
82.94
88.56
90.67
89.57
86.03
81.26
76.64
73.20
71.34
70.69
70.47
69.87
68.43
66.19
63.51
60.86
58.47
56.21
53.64
50.19
45.44
39.26
31.90
23.89
15.90
8.52
2.11
-3.35
-8.18
-13.00
-18.48
-25.07
-32.79
-41.20
-49.53
-57.05
-63.37
-68.63
-73.43
-78.61
-85.00
-93.25
-103.57
-115.55
-127.78
-137.82
-142.48
-138.68
-124.59
-100.48
-68.96
-34.24
-0.80
27.90
50.18
66.02
76.41
82.50
85.17
84.98
82.47
78.37
73.62
69.07
65.32
62.51
60.44
58.74
57.05
55.15
52.93
50.33
47.29
43.79
39.80
35.33
30.39
24.92
18.78
11.89
4.18
-4.30
-13.25
-22.28
-30.88
-38.60
-45.21
-50.88
-56.13
-61.77
-68.71
-77.68
-88.92
-101.80
-114.59
-124.58
-128.52
-123.67
-108.77
-84.74
-54.57
-22.45
7.58
32.75
52.06
65.86
75.11
80.57
82.65
81.56
77.76
72.21
66.19
60.86
56.90
54.23
52.16
49.84
46.69
42.62
38.11
33.85
30.34
27.52
24.73
20.91
15.11
6.99
-2.95
-13.53
-23.41
-31.70
-38.32
-43.98
-49.83
-56.97
-66.11
-77.34
-90.04
-102.81
-113.48
-119.36
-117.82
-107.17
-87.38
-60.41
-29.71
0.79
27.84
49.59
65.66
76.62
83.29
86.25
85.90
82.62
77.17
70.64
64.27
59.04
55.28
52.68
50.46
47.88
44.53
40.55
36.45
32.72
29.49
26.32
22.39
16.85
9.22
-0.26
-10.78
-21.17
-30.43
-38.15
-44.58
-50.54
-57.09
-65.18
-75.36
-87.56
-100.80
-113.14
-121.81
-123.78
-116.74
-99.98
-74.89
-44.69
-13.44
15.17
38.75
56.47
68.61
75.91
79.08
78.66
75.21
69.57
62.84
56.17
50.45
46.06
42.85
40.32
37.96
35.41
32.65
29.79
26.86
23.63
19.60
14.19
7.12
-1.39
-10.65
-19.67
-27.69
-34.47
-40.44
-46.58
-54.06
-63.82
-76.07
-89.91
-103.17
-112.74
-115.33
-108.57
-91.90
-67.00
-37.29
-6.91
20.55
42.88
59.43
70.66
77.48
80.67
80.72
77.94
72.79
65.96
58.42
51.14
44.94
40.25
37.03
34.87
33.11
31.04
28.08
23.88
18.33
11.59
3.98
-4.11
-12.32
-20.36
-28.12
-35.65
-43.26
-51.47
-60.95
-72.20
-85.02
-98.04
-108.62
-113.35
-109.23
-94.86
-71.29
-41.88
-11.16
16.61
38.76
54.59
64.90
71.05
74.16
74.68
72.65
68.17
61.71
54.17
46.63
40.04
34.93
31.34
28.94
27.16
25.32
22.77
19.01
13.71
6.88
-1.22
-10.08
-19.12
-27.88
-36.14
-44.10
-52.26
-61.33
-71.99
-84.40
-97.77
-110.12
-118.50
-119.78
-111.69
-93.83
-67.95
-37.51
-6.53
21.60
44.91
62.86
75.82
84.43
89.11
90.16
88.01
83.46
77.72
72.00
67.18
63.45
60.39
57.26
53.47
48.86
43.77
38.81
34.42
30.55
26.57
21.50
14.45
5.13
-5.98
-17.73
-28.85
-38.42
-46.28
-52.99
-59.66
-67.50
-77.49
-90.00
-104.52
-119.40
-131.90
-138.65
-136.62
-124.15
-101.71
-71.95
-38.87
-6.50
22.17
45.78
64.27
78.25
88.31
94.72
97.62
97.33
94.55
90.35
85.78
81.62
78.15
75.30
72.78
70.40
68.04
65.68
63.17
60.23
56.46
51.56
45.44
38.35
30.70
22.91
15.19
7.48
-0.50
-9.01
-18.16
-27.72
-37.27
-46.28
-54.36
-61.44
-67.90
-74.48
-82.12
-91.69
-103.53
-117.00
-130.17
-140.00
-143.00
-136.37
-119.06
-92.39
-59.73
-25.42
6.56
33.66
55.01
71.01
82.56
90.36
94.78
96.08
94.71
91.54
87.64
83.99
81.10
78.91
76.90
74.47
71.37
67.79
64.31
61.48
59.43
57.71
55.37
51.45
45.43
37.55
28.68
19.99
12.32
5.94
0.37
-5.27
-11.88
-19.90
-29.17
-39.02
-48.51
-56.88
-63.85
-69.68
-75.13
-81.27
-89.15
-99.43
-111.93
-125.21
-136.56
-142.43
-139.50
-125.94
-102.29
-71.45
-37.82
-5.81
21.41
42.48
57.64
67.85
74.17
77.28
77.65
75.74
72.24
67.98
63.78
60.16
57.30
54.98
52.82
50.44
47.54
44.11
40.24
36.13
31.87
27.47
22.76
17.50
11.47
4.51
-3.44
-12.35
-22.01
-32.14
-42.30
-52.05
-61.09
-69.28
-76.77
-83.97
-91.52
-100.19
-110.53
-122.45
-134.76
-144.94
-149.61
-145.48
-130.65
-105.47
-72.72
-36.70
-1.84
28.56
53.02
71.62
85.25
94.77
100.72
103.30
102.83
99.95
95.66
91.03
86.93
83.74
81.36
79.32
77.03
74.00
69.99
65.02
59.34
53.25
47.00
40.66
34.06
26.93
18.93
9.84
-0.31
-11.19
-22.28
-33.00
-42.92
-51.92
-60.15
-68.00
-75.98
-84.69
-94.72
-106.46
-119.73
-133.28
-144.65
-150.52
-147.70
-134.41
-111.20
-81.01
-48.24
-17.25
8.99
29.46
44.77
56.16
64.67
70.59
73.70
73.77
70.97
66.12
60.46
55.22
51.23
48.66
47.11
45.85
44.23
41.95
39.17
36.36
33.98
32.21
30.72
28.78
25.62
20.78
14.40
7.19
0.10
-6.09
-11.15
-15.47
-19.86
-25.18
-32.11
-41.03
-52.02
-64.86
-78.69
-91.80
-101.61
-105.09
-99.77
-84.66
-60.94
-31.70
-1.00
27.37
50.96
68.94
81.80
90.56
96.13
99.00
99.31
97.24
93.22
88.06
82.70
77.93
74.16
71.32
68.99
66.66
63.94
60.62
56.67
52.19
47.27
41.98
36.30
30.10
23.19
15.36
6.54
-3.10
-13.06
-22.71
-31.48
-39.09
-45.64
-51.59
-57.55
-64.20
-72.15
-81.85
-93.41
-106.19
-118.49
-127.56
-130.12
-123.43
-106.38
-80.18
-48.21
-14.95
15.39
40.12
58.43
71.00
79.14
83.92
85.85
85.03
81.69
76.48
70.52
65.02
60.86
58.28
56.87
55.89
54.66
52.80
50.29
47.30
44.03
40.52
36.64
32.11
26.64
20.01
12.14
3.22
-6.34
-15.94
-25.01
-33.11
-40.16
-46.39
-52.27
-58.39
-65.32
-73.54
-83.30
-94.41
-105.81
-115.42
-120.40
-117.80
-105.75
-84.28
-55.71
-23.99
6.50
32.34
51.87
65.10
73.10
77.02
77.60
75.21
70.26
63.55
56.40
50.26
46.16
44.34
44.21
44.64
44.58
43.43
41.19
38.31
35.32
32.49
29.70
26.37
21.81
15.50
7.35
-2.17
-12.18
-21.65
-29.81
-36.35
-41.54
-46.03
-50.68
-56.33
-63.68
-73.05
-84.20
-96.02
-106.34
-112.26
-110.82
-100.13
-80.19
-53.16
-22.80
6.64
31.73
50.62
63.06
69.84
72.04
70.55
66.06
59.26
51.20
43.27
36.84
32.75
31.02
30.84
30.99
30.43
28.72
26.12
23.36
21.18
19.85
19.03
17.84
15.23
10.42
3.27
-5.67
-15.28
-24.32
-31.89
-37.72
-42.28
-46.51
-51.48
-58.04
-66.63
-77.06
-88.36
-98.66
-105.39
-105.75
-97.59
-80.37
-55.55
-26.35
3.19
29.44
50.10
64.41
72.77
76.03
75.03
70.51
63.32
54.69
46.17
39.27
34.95
33.33
33.59
34.47
34.72
33.62
31.18
27.96
24.71
21.88
19.37
16.55
12.55
6.77
-0.77
-9.41
-18.10
-25.84
-32.15
-37.22
-41.78
-46.82
-53.15
-61.22
-70.91
-81.44
-91.27
-98.17
-99.55
-93.24
-78.34
-55.77
-28.26
0.40
26.52
47.48
62.20
70.86
74.29
73.41
69.07
62.20
54.04
46.18
40.13
36.84
36.30
37.56
39.17
39.82
38.80
36.15
32.49
28.55
24.77
21.13
17.21
12.48
6.58
-0.43
-8.13
-15.87
-23.12
-29.68
-35.76
-41.93
-48.89
-57.19
-66.93
-77.55
-87.61
-94.98
-97.17
-92.10
-78.94
-58.57
-33.51
-7.21
16.99
36.73
50.98
59.77
63.66
63.35
59.56
53.18
45.36
37.45
30.70
25.87
23.08
21.87
21.49
21.23
20.63
19.49
17.83
15.69
13.02
9.63
5.31
-0.09
-6.45
-13.39
-20.40
-26.99
-32.93
-38.30
-43.46
-48.97
-55.46
-63.40
-72.79
-82.84
-91.71
-96.71
-95.06
-84.89
-66.16
-40.96
-12.93
13.93
36.42
52.88
63.13
67.92
68.22
64.93
58.94
51.33
43.47
36.70
31.94
29.35
28.35
27.97
27.31
25.92
23.84
21.41
18.95
16.48
13.66
9.98
5.04
-1.19
-8.32
-15.68
-22.56
-28.58
-33.77
-38.61
-43.81
-50.17
-58.25
-67.99
-78.43
-87.58
-92.67
-90.97
-80.71
-61.97
-36.90
-9.08
17.54
39.82
56.09
66.12
70.61
70.55
66.93
60.63
52.70
44.37
36.85
31.09
27.41
25.51
24.63
23.95
22.92
21.39
19.40
17.00
14.05
10.24
5.25
-0.97
-8.11
-15.58
-22.72
-29.12
-34.78
-40.09
-45.82
-52.86
-61.83
-72.70
-84.34
-94.40
-99.77
-97.50
-85.91
-65.43
-38.66
-9.57
17.79
40.39
56.78
67.01
71.90
72.55
69.90
64.83
58.20
51.00
44.19
38.47
34.16
31.18
29.16
27.65
26.22
24.55
22.41
19.62
15.99
11.42
5.85
-0.63
-7.77
-15.23
-22.65
-29.81
-36.70
-43.61
-51.11
-59.82
-70.02
-81.12
-91.40
-98.11
-98.22
-89.54
-71.65
-46.37
-17.24
11.62
36.75
56.13
69.29
76.76
79.46
78.29
74.05
67.67
60.26
52.99
46.78
42.12
38.97
36.96
35.58
34.43
33.18
31.48
28.96
25.19
19.93
13.23
5.51
-2.52
-10.18
-17.07
-23.24
-29.17
-35.63
-43.46
-53.32
-65.35
-78.86
-92.05
-102.17
-106.02
-101.02
-86.15
-62.61
-33.56
-3.23
24.41
46.68
62.61
72.55
77.53
78.58
76.49
71.88
65.46
58.13
50.97
44.90
40.48
37.70
36.08
34.86
33.28
30.81
27.20
22.48
16.83
10.47
3.59
-3.61
-10.99
-18.40
-25.76
-33.17
-40.99
-49.80
-60.21
-72.38
-85.52
-97.64
-105.77
-106.75
-98.34
-80.26
-54.48
-24.71
4.74
30.34
50.20
64.09
72.87
77.68
79.30
78.09
74.25
68.20
60.79
53.16
46.42
41.30
37.97
36.00
34.67
33.20
30.94
27.53
22.86
17.06
10.35
3.02
-4.65
-12.46
-20.21
-27.88
-35.61
-43.83
-53.15
-64.10
-76.54
-89.30
-99.94
-105.29
-102.43
-89.87
-68.30
-40.56
-10.76
17.07
40.16
57.47
69.38
76.86
80.80
81.61
79.48
74.72
68.12
60.84
54.07
48.62
44.66
41.82
39.46
36.99
34.07
30.54
26.33
21.33
15.44
8.65
1.14
-6.78
-14.77
-22.66
-30.56
-38.93
-48.42
-59.62
-72.67
-86.84
-100.25
-109.99
-112.89
-106.54
-90.28
-65.67
-36.08
-5.62
22.13
45.01
62.42
74.82
82.96
87.37
88.25
85.82
80.65
73.76
66.41
59.71
54.23
49.95
46.46
43.21
39.92
36.56
33.17
29.66
25.58
20.31
13.30
4.44
-5.81
-16.52
-26.75
-35.83
-43.74
-51.10
-58.97
-68.50
-80.36
-94.28
-108.61
-120.49
-126.39
-123.28
-109.76
-86.76
-57.33
-25.65
4.36
30.17
50.93
67.06
79.37
88.33
93.91
95.86
94.26
89.78
83.67
77.38
72.08
68.29
65.88
64.23
62.56
60.24
56.92
52.61
47.56
42.12
36.57
30.98
25.20
18.86
11.57
3.08
-6.58
-17.03
-27.68
-37.90
-47.22
-55.50
-62.89
-69.86
-77.11
-85.43
-95.56
-107.84
-121.72
-135.44
-146.06
-150.05
-144.43
-127.93
-101.62
-68.75
-33.69
-0.54
28.05
51.17
69.30
83.38
94.06
101.44
105.32
105.72
103.27
99.16
94.76
91.17
88.79
87.37
86.23
84.76
82.67
80.12
77.50
75.17
73.23
71.39
69.08
65.71
60.88
54.57
47.26
39.71
32.70
26.72
21.70
17.12
12.25
6.53
-0.16
-7.52
-14.96
-21.90
-28.00
-33.29
-38.10
-42.97
-48.44
-54.92
-62.51
-70.87
-79.38
-87.31
-94.14
-99.80
-104.77
-109.88
-116.17
-124.51
-135.42
-148.61
-162.69
-174.98
-181.89
-179.81
-166.37
-141.48
-107.66
-69.32
-31.34
2.52
30.43
52.48
69.78
83.45
93.99
101.30
105.23
106.01
104.50
101.90
99.30
97.29
95.86
94.59
93.05
91.09
88.87
86.71
84.91
83.47
82.03
79.98
76.69
71.78
65.33
57.87
50.25
43.34
37.66
33.19
29.36
25.30
20.25
13.78
6.05
-2.34
-10.53
-17.80
-23.77
-28.58
-32.82
-37.35
-42.89
-49.81
-57.91
-66.56
-74.91
-82.30
-88.54
-93.94
-99.22
-105.28
-112.95
-122.73
-134.41
-146.77
-157.36
-162.87
-159.98
-146.57
-122.70
-90.87
-55.21
-20.16
10.90
36.36
56.22
71.29
82.43
90.10
94.50
95.93
95.00
92.70
90.05
87.82
86.28
85.25
84.28
82.92
80.98
78.56
76.04
73.83
72.12
70.69
68.96
66.20
61.89
55.96
48.89
41.52
34.68
28.86
24.04
19.71
15.21
10.02
4.02
-2.47
-8.91
-14.78
-19.85
-24.28
-28.60
-33.47
-39.41
-46.59
-54.76
-63.29
-71.42
-78.51
-84.31
-89.09
-93.53
-98.58
-105.16
-113.92
-124.87
-137.13
-148.62
-156.33
-156.91
-147.72
-127.96
-99.16
-64.89
-29.67
2.51
29.22
49.86
65.14
76.21
83.94
88.80
91.03
91.03
89.49
87.27
85.05
83.14
81.42
79.55
77.27
74.61
71.90
69.64
68.17
67.44
66.96
65.94
63.60
59.53
53.81
47.00
39.90
33.23
27.36
22.25
17.54
12.72
7.40
1.46
-4.93
-11.40
-17.59
-23.34
-28.81
-34.40
-40.54
-47.40
-54.78
-62.14
-68.89
-74.65
-79.48
-83.90
-88.68
-94.67
-102.49
-112.30
-123.45
-134.24
-142.04
-143.75
-136.78
-119.99
-94.38
-62.88
-29.56
1.64
28.05
48.61
63.68
74.32
81.54
85.99
87.94
87.61
85.39
81.98
78.17
74.69
71.91
69.83
68.15
66.54
64.74
62.73
60.60
58.44
56.22
53.74
50.71
46.86
42.06
36.34
29.87
23.01
16.20
9.85
4.24
-0.69
-5.32
-10.28
-16.17
-23.30
-31.49
-40.13
-48.44
-55.75
-61.77
-66.74
-71.29
-76.24
-82.35
-90.19
-99.83
-110.71
-121.40
-129.59
-132.45
-127.41
-113.07
-89.97
-60.72
-29.21
0.49
25.44
44.39
57.66
66.34
71.51
73.76
73.39
70.75
66.54
61.81
57.61
54.57
52.75
51.70
50.75
49.34
47.21
44.37
41.09
37.64
34.23
30.88
27.38
23.33
18.32
12.02
4.40
-4.28
-13.44
-22.40
-30.52
-37.47
-43.30
-48.47
-53.71
-59.84
-67.51
-77.01
-88.06
-99.65
-109.92
-116.39
-116.41
-108.02
-90.73
-65.98
-36.84
-7.13
19.75
41.67
57.96
69.01
75.59
78.38
77.92
74.81
69.99
64.58
59.66
55.74
52.71
49.94
46.75
42.81
38.33
33.88
30.01
26.93
24.22
21.04
16.48
9.99
1.61
-7.94
-17.66
-26.61
-34.32
-40.96
-47.20
-54.01
-62.30
-72.61
-84.70
-97.27
-107.93
-113.63
-111.51
-99.97
-79.39
-52.19
-22.08
7.11
32.42
52.35
66.68
75.95
80.95
82.43
81.02
77.40
72.30
66.46
60.55
55.08
50.30
46.27
42.83
39.68
36.51
33.02
28.99
24.24
18.59
11.93
4.32
-3.99
-12.59
-20.99
-28.86
-36.22
-43.42
-51.19
-60.32
-71.33
-83.94
-96.70
-106.96
-111.45
-107.32
-93.23
-70.13
-41.02
-10.07
18.74
42.71
60.80
73.27
80.97
84.80
85.40
83.34
79.30
74.11
68.64
63.51
58.91
54.69
50.53
46.22
41.79
37.49
33.55
29.95
26.32
22.05
16.54
9.54
1.24
-7.77
-16.75
-25.17
-32.91
-40.33
-48.12
-57.15
-68.02
-80.67
-93.95
-105.49
-112.15
-110.86
-99.80
-79.23
-51.61
-20.80
9.16
35.28
56.11
71.56
82.18
88.56
91.06
90.01
86.06
80.30
74.08
68.57
64.35
61.28
58.67
55.66
51.71
46.82
41.48
36.42
32.13
28.62
25.27
21.09
15.15
7.04
-2.87
-13.52
-23.64
-32.28
-39.23
-45.10
-51.06
-58.34
-67.82
-79.70
-93.23
-106.70
-117.49
-122.58
-119.34
-106.38
-84.32
-55.74
-24.47
5.55
31.43
51.89
66.98
77.42
83.90
86.77
86.20
82.59
76.84
70.24
64.16
59.55
56.67
55.06
53.84
52.12
49.32
45.40
40.79
36.13
31.91
28.18
24.51
20.12
14.24
6.51
-2.88
-13.16
-23.35
-32.56
-40.35
-46.89
-52.79
-58.90
-66.10
-75.04
-85.97
-98.44
-111.12
-121.69
-127.18
-124.74
-112.66
-91.12
-62.39
-30.21
1.33
29.01
51.12
67.44
78.67
85.63
88.95
89.00
86.15
81.11
74.92
68.79
63.70
60.13
57.91
56.35
54.60
51.98
48.28
43.82
39.21
35.02
31.42
28.05
24.11
18.76
11.54
2.62
-7.25
-17.06
-25.98
-33.68
-40.40
-46.70
-53.19
-60.37
-68.58
-78.12
-89.08
-101.06
-112.75
-121.74
-124.97
-119.72
-104.73
-80.93
-51.31
-19.97
9.26
33.84
52.85
66.59
75.80
81.10
82.74
80.91
76.14
69.47
62.35
56.18
51.86
49.51
48.51
47.86
46.61
44.27
40.86
36.80
32.60
28.60
24.73
20.60
15.63
9.34
1.57
-7.37
-16.79
-25.85
-33.89
-40.71
-46.65
-52.46
-59.01
-67.05
-76.99
-88.83
-101.96
-114.94
-125.39
-130.34
-126.92
-113.51
-90.50
-60.49
-27.57
4.01
31.06
52.17
67.47
77.93
84.52
87.81
88.03
85.53
80.98
75.46
70.10
65.70
62.50
60.26
58.46
56.66
54.62
52.26
49.53
46.30
42.34
37.48
31.75
25.42
18.84
12.21
5.50
-1.58
-9.31
-17.75
-26.64
-35.48
-43.78
-51.30
-58.14
-64.74
-71.71
-79.72
-89.34
-100.69
-113.18
-125.15
-133.98
-136.54
-130.24
-113.96
-88.74
-57.56
-24.45
6.76
33.46
54.64
70.57
82.02
89.68
93.86
94.76
92.75
88.65
83.57
78.57
74.31
70.87
68.00
65.36
62.80
60.41
58.36
56.70
55.20
53.39
50.65
46.46
40.57
33.18
24.92
16.69
9.27
2.96
-2.58
-8.22
-14.88
-23.02
-32.37
-42.04
-50.98
-58.53
-64.69
-70.13
-75.86
-82.92
-92.05
-103.40
-116.15
-128.30
-136.79
-138.16
-129.71
-110.60
-82.39
-48.73
-14.17
17.22
42.92
62.21
75.65
84.27
88.96
90.31
88.83
85.26
80.69
76.28
72.88
70.74
69.45
68.24
66.45
63.86
60.76
57.72
55.20
53.23
51.33
48.73
44.69
38.87
31.51
23.34
15.32
8.24
2.36
-2.68
-7.72
-13.65
-21.00
-29.61
-38.74
-47.41
-54.87
-60.92
-66.01
-70.99
-76.87
-84.49
-94.20
-105.69
-117.61
-127.63
-132.75
-130.06
-117.79
-96.10
-67.28
-35.14
-3.85
23.30
44.54
59.75
69.75
75.67
78.35
78.32
75.99
71.95
67.00
62.07
57.86
54.64
52.27
50.36
48.57
46.73
44.79
42.71
40.32
37.35
33.55
28.88
23.52
17.75
11.78
5.62
-0.90
-7.92
-15.46
-23.33
-31.24
-38.90
-46.22
-53.22
-60.11
-67.14
-74.68
-83.20
-93.05
-104.14
-115.58
-125.37
-130.63
-128.42
-116.78
-95.66
-67.22
-35.21
-3.81
23.62
45.38
61.34
72.31
79.29
82.93
83.54
81.40
77.09
71.58
65.99
61.28
57.90
55.73
54.21
52.67
50.51
47.49
43.67
39.35
34.87
30.44
26.02
21.36
16.08
9.81
2.42
-5.97
-14.98
-24.09
-32.83
-40.90
-48.26
-55.19
-62.13
-69.64
-78.32
-88.59
-100.49
-113.30
-125.31
-133.83
-135.76
-128.55
-111.27
-85.17
-53.52
-20.58
9.73
34.91
54.20
68.21
77.98
84.31
87.46
87.46
84.55
79.56
73.77
68.51
64.65
62.31
60.87
59.40
57.11
53.70
49.41
44.78
40.35
36.35
32.60
28.55
23.54
17.05
8.85
-0.78
-11.22
-21.65
-31.31
-39.77
-47.08
-53.72
-60.43
-68.05
-77.31
-88.56
-101.48
-114.74
-125.88
-131.76
-129.33
-116.77
-94.32
-64.43
-31.07
1.52
30.05
52.80
69.55
80.98
87.97
91.11
90.90
87.88
82.93
77.26
72.05
68.14
65.64
63.97
62.12
59.22
54.88
49.43
43.70
38.60
34.65
31.67
28.93
25.41
20.21
12.86
3.47
-7.31
-18.50
-29.11
-38.36
-46.05
-52.57
-58.80
-65.82
-74.59
-85.59
-98.61
-112.40
-124.67
-132.36
-132.32
-122.39
-102.25
-73.88
-41.01
-8.00
21.54
45.53
63.48
75.86
83.44
86.81
86.44
82.99
77.52
71.37
65.81
61.58
58.76
56.86
55.01
52.48
48.87
44.36
39.53
35.12
31.59
28.84
26.14
22.40
16.68
8.59
-1.49
-12.52
-23.23
-32.62
-40.28
-46.49
-52.13
-58.33
-66.17
-76.33
-88.80
-102.62
-115.84
-125.67
-129.10
-123.68
-108.44
-84.39
-54.38
-22.29
8.13
34.21
54.77
69.89
80.17
86.25
88.51
87.30
83.23
77.38
71.10
65.57
61.45
58.70
56.72
54.68
51.92
48.15
43.59
38.79
34.33
30.48
26.97
23.02
17.63
10.09
0.35
-10.80
-22.11
-32.31
-40.74
-47.59
-53.79
-60.63
-69.28
-80.35
-93.69
-108.14
-121.58
-131.19
-134.04
-127.85
-111.86
-87.14
-56.43
-23.33
8.67
37.04
60.48
78.77
92.17
101.08
105.79
106.66
104.32
99.80
94.28
88.85
84.17
80.35
77.13
74.13
71.16
68.23
65.39
62.54
59.33
55.21
49.79
42.99
35.17
26.95
18.96
11.51
4.53
-2.40
-9.87
-18.27
-27.70
-37.85
-48.11
-57.79
-66.43
-73.94
-80.76
-87.78
-96.12
-106.66
-119.54
-133.55
-146.10
-153.55
-152.32
-140.14
-116.99
-85.31
-49.27
-13.38
18.81
45.43
66.23
81.90
93.32
101.07
105.47
106.79
105.55
102.48
98.48
94.30
90.44
87.10
84.19
81.58
79.14
76.81
74.62
72.60
70.66
68.58
65.94
62.29
57.27
50.76
42.96
34.36
25.55
17.11
9.38
2.45
-3.89
-10.10
-16.65
-23.93
-32.09
-40.96
-50.09
-58.95
-67.04
-74.12
-80.29
-85.98
-91.92
-98.95
-107.86
-119.05
-132.18
-145.79
-157.30
-163.36
-160.80
-147.59
-123.78
-91.62
-55.00
-18.29
14.93
42.60
64.27
80.48
92.07
99.59
103.35
103.67
101.24
97.21
92.90
89.40
87.14
85.90
85.02
83.86
82.08
79.76
77.21
74.73
72.37
69.92
67.02
63.38
58.86
53.57
47.71
41.46
34.86
27.89
20.54
12.98
5.51
-1.54
-8.04
-14.20
-20.49
-27.42
-35.26
-43.82
-52.62
-61.03
-68.62
-75.23
-81.09
-86.72
-92.84
-100.31
-109.80
-121.38
-134.02
-145.36
-152.10
-150.92
-139.64
-118.16
-88.59
-54.61
-20.26
11.13
37.60
58.51
74.07
84.78
91.07
93.34
92.19
88.55
83.65
78.72
74.65
71.76
69.81
68.24
66.60
64.72
62.78
61.07
59.78
58.73
57.36
54.91
50.73
44.64
37.06
28.90
21.22
14.77
9.59
4.98
-0.14
-6.71
-15.07
-24.73
-34.70
-43.93
-51.74
-58.06
-63.27
-68.04
-73.23
-79.70
-88.24
-99.19
-111.95
-124.62
-134.12
-136.90
-130.12
-112.86
-86.56
-54.68
-21.49
9.24
35.21
55.70
71.10
82.12
89.27
92.74
92.74
89.79
84.87
79.21
73.87
69.44
65.99
63.23
60.79
58.56
56.61
55.10
53.97
52.90
51.27
48.41
43.79
37.30
29.29
20.54
11.97
4.41
-1.73
-6.64
-11.01
-15.83
-21.96
-29.77
-39.04
-49.02
-58.72
-67.31
-74.46
-80.43
-86.02
-92.36
-100.51
-111.06
-123.62
-136.55
-147.13
-152.05
-148.34
-134.43
-110.78
-79.90
-45.64
-12.05
17.74
42.12
60.93
74.81
84.47
90.37
92.68
91.70
88.14
83.20
78.22
74.24
71.65
70.16
69.01
67.47
65.11
61.99
58.58
55.47
53.03
51.17
49.33
46.64
42.34
36.08
28.19
19.59
11.31
4.10
-1.94
-7.39
-13.21
-20.22
-28.71
-38.30
-48.05
-56.98
-64.45
-70.46
-75.67
-81.07
-87.62
-96.03
-106.56
-118.92
-132.12
-144.20
-152.37
-153.42
-144.76
-125.47
-96.98
-62.88
-27.75
4.30
30.80
51.24
66.43
77.48
85.08
89.31
90.15
87.98
83.76
78.83
74.36
70.93
68.38
66.19
63.84
61.22
58.61
56.45
54.95
53.91
52.62
50.19
45.95
39.75
32.09
23.93
16.24
9.55
3.74
-1.97
-8.54
-16.65
-26.33
-36.95
-47.46
-56.86
-64.62
-70.86
-76.33
-82.14
-89.48
-99.12
-111.02
-123.97
-135.51
-142.35
-141.23
-130.05
-108.68
-79.22
-45.38
-11.40
19.19
44.27
63.26
76.63
85.29
90.09
91.71
90.74
87.83
83.76
79.33
75.21
71.78
69.10
66.96
65.02
62.97
60.58
57.76
54.48
50.76
46.60
41.95
36.78
31.02
24.69
17.77
10.27
2.22
-6.32
-15.20
-24.18
-32.89
-41.03
-48.45
-55.36
-62.26
-69.90
-79.07
-90.15
-102.81
-115.64
-126.22
-131.56
-128.92
-116.75
-95.35
-66.99
-35.25
-4.01
23.62
45.92
62.50
73.80
80.47
83.01
81.84
77.55
71.17
64.14
57.89
53.40
50.80
49.42
48.13
45.97
42.60
38.39
34.15
30.62
27.96
25.60
22.48
17.57
10.34
1.05
-9.41
-19.87
-29.40
-37.57
-44.58
-51.05
-57.85
-65.87
-75.74
-87.65
-100.96
-113.95
-123.94
-127.78
-122.84
-107.98
-84.15
-54.23
-22.22
8.06
33.94
54.35
69.50
80.21
87.27
91.05
91.71
89.48
84.99
79.29
73.55
68.71
65.19
62.80
60.99
59.08
56.59
53.38
49.55
45.38
41.09
36.71
32.06
26.76
20.36
12.57
3.39
-6.81
-17.36
-27.51
-36.72
-44.79
-51.91
-58.61
-65.58
-73.54
-83.15
-94.73
-107.96
-121.45
-132.69
-138.39
-135.47
-122.13
-98.76
-67.96
-33.83
-0.62
28.52
52.10
70.20
83.75
93.67
100.43
104.04
104.43
101.84
97.00
91.01
84.99
79.71
75.46
72.09
69.23
66.51
63.72
60.71
57.36
53.48
48.84
43.30
36.91
29.87
22.48
14.89
7.09
-1.11
-9.89
-19.27
-28.98
-38.54
-47.45
-55.41
-62.54
-69.35
-76.67
-85.43
-96.29
-109.26
-123.23
-135.84
-143.79
-143.79
-133.57
-113.00
-84.22
-51.07
-17.85
11.99
36.61
55.75
70.08
80.45
87.37
91.06
91.76
90.01
86.72
82.90
79.34
76.33
73.78
71.31
68.67
65.93
63.39
61.42
60.08
58.97
57.24
53.99
48.60
41.13
32.28
23.13
14.71
7.52
1.41
-4.30
-10.45
-17.63
-25.94
-34.99
-44.10
-52.57
-59.99
-66.41
-72.35
-78.67
-86.37
-96.24
-108.37
-121.79
-134.25
-142.53
-143.26
-134.08
-114.54
-86.48
-53.52
-19.93
10.70
36.25
56.18
71.00
81.54
88.35
91.70
91.84
89.32
85.13
80.42
76.18
72.91
70.51
68.55
66.49
64.09
61.47
58.96
56.93
55.38
53.89
51.67
47.93
42.23
34.77
26.36
18.12
10.93
5.06
0.03
-5.16
-11.45
-19.34
-28.54
-38.22
-47.39
-55.32
-61.88
-67.52
-73.10
-79.61
-87.87
-98.29
-110.53
-123.27
-134.11
-139.95
-137.78
-125.75
-104.00
-74.82
-42.05
-9.86
18.43
41.06
57.81
69.40
76.79
80.70
81.55
79.77
76.02
71.24
66.44
62.45
59.64
57.92
56.88
55.98
54.83
53.23
51.14
48.60
45.60
42.08
37.93
33.05
27.42
21.01
13.89
6.08
-2.36
-11.26
-20.37
-29.30
-37.66
-45.15
-51.74
-57.74
-63.70
-70.39
-78.52
-88.60
-100.54
-113.38
-125.09
-132.78
-133.33
-124.46
-105.66
-78.55
-46.61
-14.02
15.55
39.87
58.37
71.68
80.80
86.50
89.25
89.33
87.30
84.00
80.41
77.26
74.77
72.63
70.28
67.38
64.06
60.85
58.38
56.94
56.22
55.38
53.39
49.47
43.45
35.78
27.37
19.12
11.61
4.87
-1.59
-8.47
-16.38
-25.44
-35.24
-44.96
-53.75
-61.15
-67.31
-72.97
-79.21
-87.09
-97.23
-109.54
-122.85
-134.92
-142.70
-142.99
-133.52
-113.82
-85.62
-52.50
-18.76
11.85
37.10
56.47
70.66
80.75
87.57
91.44
92.49
90.98
87.59
83.33
79.18
75.83
73.46
71.85
70.56
69.28
67.88
66.42
64.91
63.26
61.17
58.28
54.30
49.12
42.88
35.93
28.68
21.54
14.80
8.59
2.88
-2.59
-8.21
-14.44
-21.59
-29.69
-38.33
-46.87
-54.59
-61.09
-66.47
-71.36
-76.66
-83.30
-91.93
-102.67
-114.95
-127.30
-137.32
-142.08
-138.76
-125.66
-103.00
-73.13
-39.91
-7.56
20.66
43.15
59.89
71.79
79.82
84.57
86.20
84.94
81.45
76.88
72.56
69.45
67.81
67.15
66.63
65.54
63.68
61.36
59.16
57.46
56.18
54.71
52.22
47.99
41.77
33.94
25.33
16.93
9.53
3.42
-1.71
-6.55
-11.92
-18.38
-26.02
-34.43
-42.87
-50.58
-57.12
-62.49
-67.18
-72.06
-78.08
-86.03
-96.18
-107.95
-119.70
-128.85
-132.38
-127.70
-113.59
-90.78
-61.89
-30.65
-0.78
24.96
45.28
60.09
70.00
75.71
77.77
76.69
73.19
68.28
63.14
58.74
55.61
53.67
52.45
51.38
50.14
48.71
47.30
46.06
44.87
43.31
40.78
36.77
31.14
24.23
16.80
9.68
3.43
-1.98
-7.09
-12.76
-19.64
-27.87
-36.95
-46.05
-54.33
-61.42
-67.50
-73.22
-79.47
-87.08
-96.61
-107.98
-120.16
-130.98
-137.32
-135.95
-124.68
-103.39
-74.27
-41.31
-8.92
19.40
41.84
58.25
69.52
76.76
80.82
82.29
81.62
79.36
76.17
72.65
69.22
66.01
62.94
59.88
56.81
53.85
51.34
49.55
48.50
47.75
46.52
43.89
39.27
32.65
24.68
16.35
8.53
1.56
-4.78
-11.16
-18.17
-26.09
-34.70
-43.48
-51.86
-59.51
-66.48
-73.16
-80.18
-88.28
-97.99
-109.38
-121.60
-132.67
-139.70
-139.57
-130.00
-110.50
-82.80
-50.36
-17.32
12.76
37.73
56.99
71.02
80.65
86.59
89.28
89.13
86.74
82.95
78.69
74.70
71.32
68.54
66.13
63.87
61.73
59.82
58.21
56.80
55.17
52.70
48.85
43.40
36.63
29.16
21.68
14.58
7.78
0.78
-6.94
-15.68
-25.20
-34.88
-44.01
-52.08
-59.06
-65.37
-71.75
-79.06
-88.07
-99.11
-111.70
-124.17
-133.70
-136.89
-130.85
-114.36
-88.57
-56.77
-23.33
7.71
33.77
54.00
68.87
79.31
86.01
89.23
89.08
85.93
80.64
74.45
68.65
64.17
61.33
59.89
59.18
58.45
57.11
54.85
51.70
47.90
43.76
39.51
35.16
30.45
24.98
18.38
10.49
1.51
-8.03
-17.52
-26.46
-34.63
-42.13
-49.25
-56.41
-64.13
-72.97
-83.36
-95.22
-107.55
-118.11
-123.83
-121.67
-109.81
-88.51
-60.16
-28.56
2.32
29.48
51.35
67.61
78.56
84.62
86.14
83.63
78.05
70.84
63.70
58.03
54.51
52.87
52.11
51.00
48.67
44.97
40.43
35.90
32.05
28.96
26.02
22.23
16.62
8.72
-1.20
-12.28
-23.35
-33.41
-41.96
-49.18
-55.78
-62.86
-71.50
-82.46
-95.79
-110.47
-124.22
-133.87
-136.02
-128.22
-109.92
-82.87
-50.67
-17.62
12.56
37.69
57.12
71.29
80.95
86.61
88.58
87.20
83.20
77.72
72.11
67.41
64.09
61.90
60.10
57.85
54.62
50.42
45.79
41.44
37.82
34.79
31.57
27.07
20.36
11.16
0.04
-11.81
-23.07
-32.83
-40.88
-47.73
-54.29
-61.59
-70.50
-81.56
-94.73
-109.14
-122.78
-132.68
-135.47
-128.55
-111.11
-84.70
-52.83
-19.88
10.34
35.60
55.34
70.23
81.18
88.71
92.90
93.67
91.33
86.76
81.30
76.22
72.30
69.63
67.71
65.80
63.28
59.88
55.74
51.20
46.64
42.30
38.10
33.71
28.61
22.30
14.55
5.48
-4.40
-14.42
-23.94
-32.64
-40.54
-47.96
-55.40
-63.41
-72.55
-83.31
-95.81
-109.40
-122.30
-131.70
-134.25
-127.30
-109.94
-83.59
-51.69
-18.60
11.81
37.21
57.05
72.06
83.25
91.27
96.25
98.01
96.68
92.89
87.74
82.42
77.81
74.22
71.45
69.04
66.52
63.65
60.40
56.85
53.05
48.92
44.29
38.95
32.75
25.63
17.66
9.02
-0.05
-9.29
-18.44
-27.28
-35.64
-43.44
-50.77
-57.84
-65.04
-72.94
-82.11
-92.96
-105.27
-117.80
-128.17
-133.26
-130.11
-117.05
-94.54
-65.19
-32.97
-1.92
25.00
46.52
62.76
74.51
82.48
86.95
88.00
85.90
81.40
75.71
70.15
65.68
62.65
60.73
59.22
57.39
54.79
51.41
47.53
43.55
39.72
35.96
31.94
27.16
21.17
13.83
5.30
-3.94
-13.27
-22.14
-30.19
-37.39
-43.99
-50.44
-57.31
-65.15
-74.44
-85.42
-97.79
-110.41
-121.19
-127.28
-125.90
-115.26
-95.48
-68.72
-38.65
-9.21
16.59
37.38
53.28
65.08
73.47
78.54
80.02
77.84
72.64
65.84
59.17
54.06
51.07
49.76
49.06
47.87
45.55
42.08
37.94
33.76
29.88
26.24
22.40
17.76
11.84
4.49
-4.05
-13.23
-22.40
-30.99
-38.72
-45.66
-52.19
-58.92
-66.53
-75.60
-86.44
-98.79
-111.52
-122.56
-129.08
-128.26
-118.23
-98.89
-72.20
-41.61
-11.03
16.40
38.99
56.55
69.70
79.19
85.39
88.34
88.11
85.17
80.50
75.30
70.59
66.92
64.27
62.23
60.32
58.20
55.72
52.86
49.64
46.03
41.97
37.40
32.27
26.48
19.95
12.57
4.31
-4.67
-14.03
-23.29
-32.04
-40.04
-47.33
-54.20
-61.10
-68.53
-77.00
-86.98
-98.58
-111.14
-122.93
-131.21
-132.81
-125.26
-107.84
-82.06
-51.28
-19.59
9.50
33.98
53.31
68.00
78.76
86.05
90.09
91.13
89.73
86.80
83.35
80.18
77.60
75.43
73.21
70.52
67.23
63.63
60.24
57.49
55.40
53.45
50.74
46.42
40.12
32.21
23.69
15.66
8.85
3.25
-1.82
-7.38
-14.22
-22.56
-31.96
-41.52
-50.32
-57.75
-63.76
-68.89
-74.08
-80.41
-88.76
-99.46
-111.97
-124.63
-134.80
-139.30
-135.34
-121.53
-98.54
-69.10
-37.18
-6.69
19.57
40.52
56.46
68.30
76.86
82.45
85.10
85.00
82.78
79.50
76.22
73.66
71.93
70.63
69.15
67.10
64.43
61.42
58.56
56.23
54.48
53.00
51.13
48.14
43.51
37.12
29.43
21.27
13.58
7.03
1.74
-2.79
-7.41
-12.95
-19.88
-28.04
-36.81
-45.36
-53.03
-59.58
-65.21
-70.50
-76.15
-82.84
-91.12
-101.15
-112.40
-123.37
-131.60
-134.08
-128.28
-113.05
-89.33
-60.00
-28.96
0.07
24.60
43.68
57.61
67.19
73.19
76.07
76.18
74.05
70.49
66.45
62.73
59.74
57.41
55.43
53.53
51.63
49.85
48.34
47.07
45.71
43.78
40.81
36.56
31.19
25.10
18.81
12.72
6.95
1.32
-4.57
-11.10
-18.44
-26.43
-34.58
-42.30
-49.20
-55.25
-60.90
-66.94
-74.22
-83.34
-94.20
-105.75
-115.89
-121.84
-120.81
-110.98
-92.28
-66.61
-37.35
-8.30
17.42
38.15
53.68
64.66
71.97
76.12
77.37
75.95
72.41
67.67
62.79
58.56
55.28
52.76
50.56
48.27
45.68
42.81
39.77
36.65
33.47
30.14
26.59
22.68
18.27
13.21
7.37
0.65
-6.87
-15.00
-23.41
-31.73
-39.65
-46.98
-53.73
-60.11
-66.56
-73.69
-82.14
-92.32
-103.94
-115.67
-125.07
-129.05
-124.79
-110.90
-88.12
-59.28
-28.38
0.70
25.37
44.72
59.13
69.51
76.55
80.56
81.68
80.25
77.07
73.16
69.41
66.32
63.83
61.61
59.35
56.96
54.59
52.44
50.53
48.60
46.13
42.60
37.73
31.67
24.86
17.93
11.29
5.00
-1.25
-7.97
-15.56
-24.10
-33.25
-42.41
-50.96
-58.53
-65.09
-71.06
-77.19
-84.40
-93.49
-104.67
-117.10
-128.65
-136.16
-136.27
-126.68
-107.07
-79.50
-47.76
-16.11
12.04
34.92
52.38
65.22
74.37
80.36
83.40
83.66
81.68
78.37
74.81
71.83
69.74
68.24
66.73
64.68
61.96
58.93
56.19
54.17
52.82
51.49
49.22
45.24
39.37
32.14
24.50
17.37
11.13
5.49
-0.33
-7.10
-15.21
-24.41
-33.95
-42.94
-50.72
-57.16
-62.69
-68.13
-74.42
-82.42
-92.54
-104.52
-117.09
-127.93
-133.96
-132.20
-120.75
-99.78
-71.69
-40.42
-10.12
16.14
37.09
53.02
64.94
73.74
79.75
82.92
83.30
81.38
78.05
74.27
70.68
67.41
64.29
61.15
58.08
55.41
53.56
52.64
52.35
51.99
50.67
47.71
42.89
36.51
29.25
21.86
14.83
8.29
1.98
-4.54
-11.61
-19.25
-27.22
-35.05
-42.31
-48.80
-54.66
-60.37
-66.62
-74.15
-83.51
-94.60
-106.40
-116.78
-122.86
-121.75
-111.57
-92.32
-66.01
-36.16
-6.67
19.38
40.34
56.00
67.01
74.18
78.08
78.97
77.15
73.17
67.94
62.56
57.96
54.65
52.61
51.39
50.39
49.09
47.21
44.73
41.77
38.48
34.91
30.99
26.59
21.57
15.81
9.27
2.04
-5.68
-13.59
-21.33
-28.62
-35.34
-41.57
-47.58
-53.78
-60.69
-68.84
-78.60
-89.90
-101.86
-112.59
-119.34
-119.26
-110.35
-92.37
-67.17
-38.19
-9.33
16.19
36.71
52.00
62.81
70.02
74.15
75.40
73.95
70.22
65.12
59.71
54.98
51.49
49.35
48.22
47.58
46.85
45.55
43.39
40.34
36.56
32.34
27.94
23.45
18.71
13.45
7.39
0.39
-7.47
-15.94
-24.62
-33.09
-41.02
-48.19
-54.64
-60.68
-66.91
-74.17
-83.20
-94.26
-106.69
-118.61
-127.13
-128.97
-121.64
-104.41
-78.79
-48.14
-16.61
12.17
36.04
54.44
67.92
77.31
83.25
86.02
85.93
83.60
79.98
76.13
72.82
70.31
68.30
66.32
63.97
61.25
58.50
56.16
54.47
53.26
51.86
49.41
45.20
39.01
31.27
22.91
14.94
8.00
2.10
-3.36
-9.26
-16.25
-24.44
-33.37
-42.26
-50.37
-57.37
-63.45
-69.21
-75.52
-83.25
-93.07
-104.99
-118.09
-130.21
-138.22
-138.81
-129.61
-110.19
-82.46
-50.11
-17.44
11.96
36.04
54.38
67.63
76.77
82.58
85.53
86.04
84.63
82.06
79.11
76.33
73.92
71.71
69.38
66.72
63.83
61.07
58.86
57.39
56.38
55.10
52.65
48.33
42.00
34.19
25.88
18.12
11.54
6.13
1.24
-4.10
-10.76
-19.05
-28.61
-38.55
-47.84
-55.73
-62.09
-67.45
-72.86
-79.51
-88.28
-99.28
-111.55
-122.95
-130.52
-131.18
-122.76
-104.77
-78.76
-47.92
-16.13
13.14
37.68
56.70
70.47
79.70
85.07
87.08
86.23
83.25
79.12
74.86
71.21
68.42
66.28
64.34
62.26
59.98
57.62
55.33
53.06
50.52
47.30
43.09
37.83
31.75
25.25
18.74
12.48
6.45
0.33
-6.32
-13.88
-22.42
-31.56
-40.60
-48.78
-55.63
-61.27
-66.39
-72.09
-79.47
-89.19
-101.01
-113.39
-123.67
-128.52
-125.01
-111.65
-89.14
-60.30
-29.15
0.32
25.40
44.99
59.35
69.28
75.42
78.04
77.28
73.58
67.92
61.72
56.35
52.64
50.65
49.70
48.79
47.07
44.21
40.46
36.48
32.86
29.90
27.34
24.49
20.56
14.94
7.54
-1.25
-10.65
-19.82
-28.11
-35.27
-41.48
-47.19
-53.10
-59.93
-68.33
-78.66
-90.60
-102.87
-113.21
-118.70
-116.64
-105.54
-85.81
-59.78
-31.01
-3.07
21.42
41.23
56.23
66.81
73.37
76.13
75.39
71.88
66.77
61.47
57.13
54.29
52.70
51.61
50.09
47.53
43.84
39.42
34.96
31.07
27.97
25.35
22.43
18.31
12.34
4.41
-5.02
-15.09
-24.88
-33.69
-41.26
-47.81
-53.99
-60.73
-68.96
-79.31
-91.62
-104.58
-115.76
-122.05
-120.56
-109.69
-89.79
-63.15
-33.34
-4.05
21.89
43.09
59.43
71.48
79.84
84.82
86.49
85.09
81.23
76.01
70.71
66.37
63.46
61.77
60.64
59.25
56.93
53.42
48.85
43.72
38.57
33.85
29.66
25.68
21.29
15.84
8.95
0.70
-8.48
-17.94
-27.11
-35.70
-43.66
-51.16
-58.50
-66.05
-74.30
-83.76
-94.70
-106.66
-118.10
-126.40
-128.46
-121.72
-105.26
-80.38
-50.26
-19.02
9.67
33.51
51.87
65.35
74.91
81.31
84.89
85.81
84.41
81.39
77.63
73.95
70.81
68.23
65.95
63.66
61.20
58.56
55.81
52.95
49.85
46.35
42.30
37.63
32.36
26.53
20.11
13.03
5.25
-3.15
-11.92
-20.69
-29.10
-36.88
-43.99
-50.67
-57.36
-64.68
-73.27
-83.59
-95.52
-108.03
-118.92
-125.23
-124.02
-113.46
-93.70
-67.04
-37.22
-8.20
17.06
37.25
52.51
63.66
71.43
76.01
77.27
75.23
70.51
64.41
58.58
54.36
52.35
52.15
52.65
52.58
51.07
47.97
43.81
39.46
35.60
32.41
29.48
26.05
21.32
14.86
6.73
-2.49
-11.93
-20.77
-28.50
-35.11
-41.07
-47.08
-53.89
-62.05
-71.82
-83.04
-95.00
-106.23
-114.47
-117.05
-111.66
-97.26
-74.73
-46.81
-17.26
10.33
33.58
51.66
64.89
74.07
79.84
82.50
82.25
79.56
75.27
70.39
65.84
62.10
59.25
57.02
55.05
53.08
50.96
48.62
46.01
43.05
39.65
35.74
31.25
26.14
20.40
14.00
6.97
-0.66
-8.78
-17.25
-25.83
-34.25
-42.23
-49.59
-56.38
-62.88
-69.64
-77.38
-86.76
-97.99
-110.38
-122.11
-130.37
-132.02
-124.66
-107.64
-82.47
-52.46
-21.65
6.44
29.71
47.66
60.87
70.27
76.57
80.13
81.23
80.30
78.02
75.18
72.37
69.79
67.28
64.56
61.50
58.23
55.11
52.49
50.42
48.60
46.43
43.28
38.78
32.98
26.35
19.53
13.01
6.95
1.06
-5.13
-12.08
-19.87
-28.20
-36.48
-44.09
-50.71
-56.40
-61.67
-67.27
-74.06
-82.74
-93.47
-105.55
-117.11
-125.33
-127.06
-119.89
-103.20
-78.51
-49.18
-19.22
7.97
30.45
47.88
60.91
70.34
76.63
79.81
79.89
77.23
72.74
67.62
63.01
59.55
57.21
55.46
53.56
50.92
47.37
43.20
38.99
35.25
32.16
29.36
26.06
21.39
14.77
6.26
-3.47
-13.36
-22.38
-29.95
-36.10
-41.41
-46.72
-52.93
-60.72
-70.43
-81.96
-94.47
-106.32
-115.10
-118.09
-113.09
-99.25
-77.52
-50.54
-21.84
5.20
28.23
46.20
59.22
67.89
72.90
74.80
74.11
71.46
67.63
63.41
59.28
55.39
51.56
47.52
43.25
38.99
35.14
31.95
29.31
26.68
23.29
18.45
11.85
3.70
-5.33
-14.43
-22.89
-30.37
-37.01
-43.43
-50.53
-59.21
-69.94
-82.29
-94.66
-104.42
-108.54
-104.53
-91.41
-70.18
-43.65
-15.52
10.73
32.73
49.56
61.41
69.03
73.18
74.38
73.08
69.83
65.43
60.74
56.43
52.72
49.43
46.11
42.39
38.22
33.87
29.68
25.86
22.27
18.39
13.62
7.52
0.09
-8.22
-16.72
-24.74
-32.00
-38.70
-45.47
-53.15
-62.46
-73.62
-86.00
-97.92
-106.80
-109.76
-104.50
-90.23
-68.15
-41.20
-13.11
12.72
34.16
50.57
62.30
70.09
74.45
75.64
73.96
70.04
64.86
59.50
54.73
50.75
47.32
44.02
40.62
37.20
34.04
31.34
28.95
26.32
22.71
17.53
10.62
2.36
-6.44
-14.86
-22.22
-28.30
-33.49
-38.65
-44.85
-53.06
-63.74
-76.42
-89.49
-100.37
-105.97
-103.67
-92.21
-72.26
-46.30
-17.94
9.24
32.57
50.77
63.69
71.84
75.85
76.31
73.78
69.01
62.97
56.67
50.90
45.99
41.89
38.27
34.88
31.62
28.57
25.78
23.10
20.11
16.24
11.04
4.39
-3.43
-11.82
-20.10
-27.76
-34.68
-41.08
-47.56
-54.90
-63.81
-74.56
-86.49
-97.85
-105.94
-107.80
-101.29
-85.98
-63.46
-36.88
-9.80
14.85
35.43
51.48
63.16
70.73
74.29
74.04
70.58
65.06
58.97
53.64
49.84
47.53
46.02
44.31
41.70
37.97
33.52
29.11
25.34
22.33
19.50
15.84
10.41
2.84
-6.41
-16.27
-25.54
-33.39
-39.73
-45.12
-50.56
-57.12
-65.69
-76.60
-89.41
-102.56
-113.54
-119.25
-116.94
-105.21
-84.68
-57.92
-28.71
-0.77
23.29
42.43
56.98
67.82
75.68
80.75
82.88
81.99
78.53
73.51
68.24
63.81
60.66
58.45
56.40
53.66
49.87
45.23
40.42
36.12
32.67
29.82
26.84
22.83
17.14
9.62
0.70
-8.80
-18.01
-26.34
-33.60
-40.07
-46.27
-52.82
-60.30
-69.20
-79.80
-91.91
-104.49
-115.50
-122.12
-121.49
-111.79
-93.03
-67.30
-38.13
-9.34
16.10
36.77
52.61
64.38
72.86
78.54
81.59
82.21
80.85
78.26
75.18
72.13
69.23
66.31
63.15
59.74
56.34
53.26
50.66
48.35
45.81
42.48
38.02
32.46
26.22
19.84
13.68
7.89
2.27
-3.50
-9.74
-16.63
-24.15
-32.05
-39.90
-47.26
-53.85
-59.76
-65.53
-71.99
-80.02
-90.04
-101.58
-112.98
-121.57
-124.26
-118.55
-103.43
-79.97
-51.05
-20.60
7.72
31.46
49.70
62.82
71.70
77.12
79.50
79.13
76.41
72.08
67.18
62.65
59.14
56.80
55.32
54.16
52.80
50.86
48.21
44.92
41.12
36.95
32.52
27.91
23.26
18.68
14.17
9.56
4.47
-1.51
-8.60
-16.65
-25.13
-33.37
-40.81
-47.34
-53.19
-58.94
-65.28
-72.86
-81.97
-92.24
-102.33
-109.93
-112.19
-106.65
-92.29
-70.10
-42.93
-14.60
11.41
32.82
48.97
60.25
67.46
71.23
71.84
69.53
64.83
58.70
52.45
47.31
43.99
42.51
42.22
42.13
41.32
39.31
36.12
32.20
28.10
24.20
20.58
16.98
12.97
8.11
2.13
-5.02
-13.06
-21.54
-29.95
-37.84
-44.99
-51.44
-57.49
-63.66
-70.59
-78.91
-88.91
-100.07
-110.75
-118.31
-119.70
-112.51
-96.06
-71.84
-43.11
-13.85
12.51
34.03
50.36
62.13
70.26
75.28
77.33
76.51
73.26
68.49
63.30
58.60
54.73
51.57
48.71
45.88
43.11
40.61
38.54
36.78
34.93
32.51
29.23
24.98
19.81
13.73
6.69
-1.32
-10.10
-19.15
-27.84
-35.61
-42.28
-48.13
-53.68
-59.72
-66.98
-76.05
-87.10
-99.58
-111.87
-121.38
-125.00
-120.12
-105.70
-82.79
-54.33
-24.18
4.13
28.31
47.55
62.08
72.49
79.26
82.70
83.12
81.19
77.87
74.21
70.98
68.48
66.52
64.69
62.66
60.38
58.07
56.04
54.38
52.82
50.80
47.68
43.15
37.32
30.72
24.03
17.67
11.58
5.35
-1.58
-9.55
-18.45
-27.72
-36.65
-44.61
-51.41
-57.31
-62.91
-69.05
-76.56
-86.05
-97.60
-110.42
-122.56
-131.07
-132.65
-124.76
-106.72
-80.18
-48.75
-16.85
11.72
34.78
51.91
63.88
71.82
76.58
78.68
78.49
76.54
73.61
70.51
67.71
65.32
63.10
60.73
58.10
55.37
52.89
50.97
49.66
48.61
47.19
44.70
40.63
34.94
28.05
20.75
13.77
7.48
1.74
-3.99
-10.32
-17.57
-25.61
-33.87
-41.63
-48.44
-54.29
-59.65
-65.37
-72.35
-81.22
-91.97
-103.58
-113.99
-120.34
-119.77
-110.41
-92.11
-66.77
-37.76
-8.94
16.54
36.90
51.88
62.22
68.87
72.51
73.40
71.70
67.81
62.62
57.33
53.03
50.28
48.90
48.14
47.07
45.08
42.10
38.56
35.06
32.00
29.34
26.62
23.13
18.31
11.96
4.40
-3.69
-11.53
-18.63
-24.89
-30.64
-36.38
-42.57
-49.46
-57.16
-65.78
-75.42
-85.94
-96.52
-105.38
-109.99
-107.72
-96.96
-77.87
-52.58
-24.52
2.69
26.34
45.13
59.04
68.67
74.55
76.95
75.96
71.92
65.70
58.66
52.23
47.46
44.63
43.21
42.24
40.72
38.12
34.46
30.27
26.13
22.38
18.84
14.94
9.94
3.35
-4.79
-13.91
-23.09
-31.51
-38.69
-44.75
-50.21
-55.88
-62.58
-70.94
-81.30
-93.37
-106.01
-117.04
-123.57
-122.75
-112.76
-93.65
-67.51
-37.81
-8.30
18.07
39.80
56.62
68.98
77.50
82.59
84.57
83.83
80.99
76.88
72.37
68.12
64.50
61.56
59.06
56.65
54.02
50.99
47.59
44.04
40.51
37.07
33.51
29.41
24.26
17.71
9.69
0.51
-9.16
-18.59
-27.12
-34.53
-40.98
-47.01
-53.26
-60.32
-68.62
-78.43
-89.81
-102.34
-114.69
-124.54
-128.82
-124.75
-110.93
-88.16
-59.37
-28.69
-0.01
24.17
43.09
57.28
67.69
74.95
79.25
80.61
79.35
76.27
72.50
69.07
66.50
64.71
63.22
61.48
59.25
56.67
54.09
51.81
49.78
47.64
44.81
40.88
35.77
29.80
23.49
17.26
11.22
5.15
-1.34
-8.57
-16.54
-24.92
-33.23
-41.00
-48.09
-54.69
-61.29
-68.57
-77.19
-87.55
-99.44
-111.68
-121.98
-127.34
-124.91
-113.04
-92.10
-64.50
-33.98
-4.39
21.48
42.35
58.24
69.79
77.65
82.18
83.62
82.40
79.28
75.27
71.27
67.85
65.12
62.90
60.88
58.90
56.92
55.01
53.15
51.16
48.74
45.55
41.39
36.30
30.58
24.65
18.82
13.16
7.46
1.33
-5.61
-13.44
-21.94
-30.63
-38.97
-46.58
-53.37
-59.61
-65.89
-73.00
-81.65
-92.04
-103.36
-113.57
-119.70
-118.73
-108.68
-89.59
-63.62
-34.39
-5.78
19.23
39.18
53.94
64.14
70.49
73.43
73.26
70.36
65.52
59.83
54.52
50.47
48.01
46.83
46.13
45.06
43.02
39.91
36.08
32.15
28.59
25.50
22.52
18.97
14.24
8.03
0.52
-7.73
-16.04
-23.87
-31.00
-37.50
-43.67
-49.83
-56.35
-63.62
-72.11
-82.10
-93.39
-104.81
-114.20
-118.73
-115.84
-104.21
-84.36
-58.59
-30.29
-2.83
21.30
40.83
55.55
65.77
71.93
74.38
73.53
70.04
64.92
59.39
54.60
51.31
49.66
49.18
48.98
48.12
45.93
42.27
37.54
32.50
27.85
23.98
20.72
17.39
13.10
7.15
-0.67
-9.90
-19.66
-28.97
-37.19
-44.20
-50.41
-56.53
-63.28
-71.26
-80.85
-92.01
-104.00
-115.12
-122.75
-123.96
-116.44
-99.57
-74.82
-45.41
-15.22
12.40
35.44
53.30
66.36
75.26
80.55
82.60
81.82
78.87
74.66
70.20
66.32
63.49
61.68
60.43
59.09
57.09
54.17
50.46
46.33
42.17
38.17
34.25
30.09
25.24
19.33
12.16
3.76
-5.52
-15.10
-24.33
-32.64
-39.87
-46.28
-52.48
-59.26
-67.33
-77.23
-89.01
-102.04
-114.69
-124.37
-128.01
-122.99
-108.18
-84.59
-55.13
-23.73
5.92
31.33
51.51
66.63
77.31
84.15
87.63
88.17
86.38
83.08
79.16
75.34
72.06
69.49
67.50
65.87
64.34
62.62
60.51
57.88
54.66
50.79
46.30
41.27
35.81
30.05
24.08
17.86
11.23
4.02
-3.87
-12.32
-21.03
-29.55
-37.48
-44.67
-51.30
-57.83
-64.90
-73.27
-83.50
-95.62
-108.74
-120.75
-128.63
-129.16
-120.06
-100.99
-73.91
-42.53
-11.11
16.89
39.60
56.74
69.04
77.36
82.23
83.91
82.77
79.54
75.31
71.24
68.07
65.93
64.45
63.03
61.27
59.05
56.52
53.85
51.07
48.07
44.60
40.55
35.93
30.93
25.74
20.38
14.72
8.48
1.43
-6.48
-14.97
-23.55
-31.71
-39.17
-45.96
-52.55
-59.62
-67.89
-77.92
-89.70
-102.42
-114.18
-122.20
-123.53
-115.99
-99.19
-74.81
-46.25
-17.43
8.35
29.29
45.04
56.20
63.52
67.50
68.38
66.50
62.56
57.64
52.92
49.26
46.89
45.42
44.09
42.16
39.29
35.66
31.84
28.49
25.92
23.98
21.97
18.97
14.18
7.24
-1.59
-11.49
-21.38
-30.19
-37.34
-42.94
-47.75
-53.00
-59.88
-69.18
-80.94
-94.25
-107.24
-117.36
-121.79
-118.24
-105.61
-84.57
-57.55
-28.12
0.05
24.23
43.14
56.91
66.36
72.34
75.31
75.43
72.93
68.46
63.14
58.24
54.65
52.53
51.30
49.99
47.75
44.32
40.07
35.79
32.18
29.46
27.18
24.43
20.23
13.96
5.67
-3.97
-13.94
-23.27
-31.38
-38.24
-44.35
-50.48
-57.44
-65.91
-76.26
-88.42
-101.64
-114.23
-123.68
-127.08
-122.06
-107.62
-84.78
-56.40
-26.26
2.10
26.32
45.62
60.38
71.44
79.47
84.67
86.98
86.47
83.59
79.26
74.58
70.45
67.32
65.10
63.30
61.36
58.89
55.78
52.14
48.18
44.01
39.62
34.88
29.63
23.69
16.94
9.30
0.82
-8.31
-17.71
-26.92
-35.56
-43.49
-50.87
-58.06
-65.60
-74.07
-83.96
-95.50
-108.30
-120.96
-131.02
-135.46
-131.55
-117.98
-95.57
-67.08
-36.41
-7.24
17.91
38.03
53.31
64.39
71.84
75.94
76.88
75.04
71.17
66.25
61.24
56.75
52.97
49.71
46.72
43.87
41.29
39.17
37.59
36.29
34.79
32.58
29.42
25.58
21.68
18.40
16.11
14.62
13.25
11.06
7.23
1.41
-6.16
-14.76
-23.47
-31.54
-38.68
-45.20
-51.91
-59.84
-69.89
-82.19
-95.80
-108.46
-117.03
-118.28
-110.05
-92.05
-66.22
-36.11
-5.67
21.84
44.66
62.42
75.51
84.44
89.52
91.04
89.57
86.18
82.16
78.63
76.12
74.47
73.09
71.35
68.92
65.87
62.55
59.30
56.31
53.46
50.41
46.74
42.17
36.65
30.47
24.05
17.69
11.39
4.87
-2.30
-10.34
-19.06
-27.90
-36.18
-43.39
-49.46
-54.78
-60.01
-66.04
-73.68
-83.48
-95.35
-108.19
-119.69
-126.70
-126.07
-115.83
-96.01
-68.93
-38.36
-8.46
17.61
38.24
53.33
63.68
70.25
73.72
74.45
72.78
69.23
64.61
59.88
55.80
52.76
50.70
49.25
47.89
46.23
44.06
41.39
38.34
35.09
31.71
28.10
24.02
19.10
13.00
5.62
-2.76
-11.58
-20.11
-27.77
-34.37
-40.10
-45.45
-50.99
-57.20
-64.49
-73.24
-83.64
-95.37
-107.17
-116.72
-121.04
-117.36
-104.32
-82.60
-54.90
-25.13
2.90
26.54
44.69
57.56
66.01
70.89
72.77
72.03
69.12
64.78
59.93
55.50
52.10
49.93
48.74
47.99
47.07
45.53
43.23
40.24
36.85
33.29
29.66
25.83
21.48
16.24
9.86
2.32
-6.09
-14.88
-23.52
-31.54
-38.70
-45.02
-50.85
-56.76
-63.43
-71.50
-81.38
-92.97
-105.37
-116.78
-124.65
-126.21
-119.34
-103.42
-79.71
-51.18
-21.61
5.58
28.21
45.64
58.42
67.51
73.63
77.06
77.81
76.06
72.45
67.93
63.54
59.96
57.40
55.57
54.01
52.30
50.26
47.86
45.14
42.13
38.73
34.80
30.21
24.86
18.73
11.82
4.22
-3.94
-12.42
-20.88
-28.97
-36.45
-43.23
-49.52
-55.74
-62.44
-70.21
-79.54
-90.58
-102.82
-114.80
-124.07
-127.68
-123.04
-109.00
-86.40
-58.04
-27.72
0.91
25.44
44.98
59.83
70.77
78.45
83.17
85.09
84.52
82.06
78.52
74.66
71.00
67.73
64.83
62.21
59.86
57.83
56.13
54.60
52.88
50.41
46.68
41.48
35.01
27.81
20.55
13.70
7.35
1.21
-5.18
-12.17
-19.84
-27.97
-36.19
-44.09
-51.41
-58.16
-64.61
-71.37
-79.23
-88.83
-100.19
-112.17
-122.43
-127.88
-125.60
-114.01
-93.51
-66.47
-36.47
-7.18
18.65
39.65
55.66
67.25
75.11
79.75
81.58
81.00
78.65
75.32
71.84
68.74
66.19
64.06
62.04
59.96
57.87
55.89
54.13
52.45
50.42
47.51
43.30
37.73
31.16
24.25
17.68
11.88
6.78
1.84
-3.72
-10.58
-18.90
-28.27
-37.76
-46.43
-53.71
-59.63
-64.81
-70.26
-77.02
-85.86
-96.87
-109.14
-120.54
-128.08
-128.56
-119.74
-101.31
-75.21
-45.06
-15.01
11.62
32.99
48.84
59.85
66.90
70.70
71.73
70.50
67.70
64.20
60.82
58.11
56.21
54.87
53.64
52.17
50.33
48.21
46.05
43.99
41.89
39.43
36.19
31.95
26.73
20.76
14.30
7.47
0.27
-7.37
-15.41
-23.58
-31.49
-38.77
-45.26
-51.17
-56.97
-63.44
-71.35
-81.26
-93.16
-106.16
-118.30
-126.76
-128.53
-121.40
-104.78
-80.14
-50.63
-20.18
7.70
30.79
48.39
60.97
69.51
74.87
77.64
78.17
76.85
74.26
71.06
67.80
64.76
61.96
59.32
56.82
54.62
52.93
51.82
51.06
50.12
48.30
45.03
40.06
33.53
25.98
18.16
10.79
4.25
-1.47
-6.89
-12.71
-19.50
-27.42
-36.05
-44.65
-52.50
-59.27
-65.24
-71.24
-78.35
-87.48
-98.88
-111.75
-124.06
-132.84
-134.89
-127.86
-111.15
-86.27
-56.42
-25.47
3.25
27.68
47.21
62.13
73.05
80.42
84.47
85.41
83.73
80.31
76.27
72.66
70.09
68.61
67.75
66.84
65.40
63.40
61.19
59.16
57.45
55.68
53.16
49.16
43.42
36.29
28.61
21.36
15.20
10.15
5.63
0.67
-5.65
-13.78
-23.50
-34.00
-44.14
-52.93
-59.89
-65.23
-69.79
-74.75
-81.27
-90.23
-101.80
-115.09
-127.96
-137.28
-139.59
-132.25
-114.43
-87.67
-55.50
-22.28
8.12
33.26
52.43
66.14
75.38
81.05
83.83
84.22
82.86
80.54
78.07
75.98
74.40
73.01
71.29
68.85
65.70
62.31
59.42
57.60
56.91
56.74
55.98
53.52
48.69
41.59
33.06
24.29
16.35
9.75
4.26
-0.91
-6.71
-13.77
-22.16
-31.35
-40.49
-48.82
-56.00
-62.21
-68.06
-74.38
-81.95
-91.26
-102.25
-114.02
-124.65
-131.37
-131.15
-121.85
-103.06
-76.56
-45.87
-15.05
12.51
34.90
51.76
63.72
71.60
76.00
77.30
75.84
72.34
67.80
63.26
59.53
56.90
55.19
53.95
52.70
51.15
49.23
47.00
44.53
41.82
38.72
35.07
30.77
25.82
20.35
14.44
8.14
1.38
-5.90
-13.63
-21.57
-29.37
-36.65
-43.26
-49.33
-55.28
-61.77
-69.47
-78.84
-89.76
-101.27
-111.38
-117.40
-116.57
-107.09
-88.85
-63.75
-35.15
-6.83
18.14
38.16
53.02
63.38
70.04
73.50
73.96
71.63
67.07
61.24
55.34
50.41
47.02
45.16
44.29
43.60
42.31
39.94
36.45
32.23
27.88
23.90
20.38
16.89
12.74
7.21
0.07
-8.40
-17.45
-26.30
-34.42
-41.74
-48.58
-55.43
-62.79
-71.05
-80.54
-91.35
-103.03
-114.24
-122.64
-125.32
-119.73
-104.75
-81.34
-52.40
-21.84
6.67
30.69
49.33
62.90
72.22
77.99
80.63
80.41
77.77
73.45
68.48
63.87
60.32
58.05
56.72
55.66
54.18
51.83
48.55
44.67
40.66
36.87
33.30
29.60
25.24
19.75
12.94
4.94
-3.85
-12.91
-21.76
-30.09
-37.82
-45.02
-51.97
-59.12
-67.02
-76.31
-87.32
-99.72
-112.15
-122.12
-126.54
-122.65
-109.02
-86.35
-57.37
-26.03
3.75
29.17
49.11
63.79
74.15
81.06
85.00
86.15
84.77
81.44
77.11
72.75
69.09
66.34
64.26
62.34
60.11
57.34
54.02
50.32
46.42
42.43
38.33
33.95
28.99
23.13
16.16
8.14
-0.61
-9.56
-18.21
-26.25
-33.66
-40.59
-47.37
-54.32
-61.84
-70.40
-80.43
-91.94
-104.08
-114.88
-121.53
-121.13
-111.76
-93.32
-67.77
-38.51
-9.32
16.74
38.00
54.19
65.85
73.75
78.38
79.94
78.61
74.92
69.82
64.61
60.42
57.80
56.54
55.76
54.45
51.91
48.10
43.55
39.01
35.02
31.57
28.21
24.25
19.11
12.56
4.81
-3.61
-12.08
-20.10
-27.40
-34.01
-40.21
-46.44
-53.23
-61.07
-70.35
-81.09
-92.69
-103.64
-111.60
-113.93
-108.48
-94.48
-73.07
-46.97
-19.64
5.79
27.36
44.41
57.15
66.08
71.49
73.46
72.16
68.22
62.70
56.97
52.23
49.11
47.57
46.93
46.27
44.81
42.21
38.64
34.61
30.69
27.18
23.88
20.17
15.30
8.76
0.55
-8.70
-18.05
-26.62
-33.95
-40.20
-45.99
-52.12
-59.36
-68.23
-78.89
-90.95
-103.28
-113.84
-119.93
-118.87
-109.02
-90.55
-65.57
-37.54
-10.09
14.12
33.89
49.30
61.00
69.52
75.00
77.39
76.83
73.90
69.66
65.25
61.62
59.18
57.79
56.88
55.76
53.92
51.13
47.53
43.43
39.17
34.86
30.37
25.36
19.45
12.41
4.31
-4.52
-13.56
-22.33
-30.55
-38.16
-45.38
-52.57
-60.10
-68.37
-77.70
-88.27
-99.90
-111.74
-122.00
-128.14
-127.53
-118.34
-100.44
-75.62
-47.00
-18.11
8.31
30.77
48.98
63.27
73.95
81.13
84.82
85.27
83.18
79.58
75.56
71.90
68.96
66.69
64.77
62.93
60.96
58.80
56.42
53.75
50.65
46.91
42.41
37.15
31.35
25.25
19.01
12.56
5.64
-2.02
-10.47
-19.47
-28.56
-37.23
-45.23
-52.57
-59.59
-66.82
-74.89
-84.34
-95.36
-107.34
-118.58
-126.42
-127.87
-120.58
-103.94
-79.46
-50.34
-20.47
6.84
29.65
47.48
60.83
70.48
76.96
80.55
81.42
79.98
76.91
73.08
69.29
66.09
63.60
61.68
60.02
58.34
56.48
54.35
51.89
48.98
45.48
41.31
36.46
31.03
25.12
18.77
11.95
4.59
-3.31
-11.58
-19.94
-28.01
-35.55
-42.49
-48.98
-55.38
-62.24
-70.20
-79.79
-91.04
-102.99
-113.59
-119.89
-118.94
-108.88
-89.79
-63.84
-34.65
-6.07
18.95
39.00
53.99
64.53
71.29
74.61
74.72
72.05
67.48
62.22
57.47
54.03
52.01
50.91
49.94
48.33
45.70
42.10
37.90
33.68
29.82
26.41
23.15
19.40
14.50
8.00
-0.08
-9.23
-18.63
-27.46
-35.24
-41.94
-47.96
-53.95
-60.63
-68.64
-78.41
-89.93
-102.39
-113.95
-121.85
-123.11
-115.50
-98.50
-73.66
-44.23
-14.11
13.37
36.22
53.91
66.86
75.83
81.35
83.74
83.28
80.46
76.14
71.33
66.94
63.49
60.98
59.01
57.01
54.53
51.36
47.64
43.63
39.58
35.62
31.64
27.36
22.35
16.29
8.97
0.53
-8.66
-17.99
-26.85
-34.88
-42.02
-48.58
-55.04
-61.97
-69.89
-79.24
-90.21
-102.40
-114.50
-124.19
-128.49
-124.68
-111.39
-89.27
-61.00
-30.41
-1.25
23.86
43.85
58.88
69.67
76.88
80.96
82.26
81.29
78.80
75.65
72.54
69.79
67.41
65.16
62.83
60.32
57.73
55.18
52.73
50.30
47.59
44.24
39.98
34.75
28.73
22.26
15.65
8.95
2.01
-5.46
-13.64
-22.36
-31.20
-39.59
-47.11
-53.70
-59.73
-65.90
-73.06
-81.96
-92.91
-105.29
-117.35
-126.32
-129.01
-122.85
-106.95
-82.60
-52.97
-22.10
6.44
30.42
49.15
63.09
73.04
79.63
83.23
84.09
82.62
79.54
75.69
71.79
68.26
65.15
62.31
59.59
56.97
54.59
52.61
51.03
49.56
47.67
44.78
40.54
34.99
28.61
21.98
15.55
9.39
3.20
-3.44
-10.74
-18.63
-26.72
-34.55
-41.80
-48.39
-54.50
-60.53
-67.07
-74.83
-84.37
-95.68
-107.63
-117.88
-123.24
-120.69
-108.60
-87.50
-60.11
-30.41
-2.30
21.52
40.01
53.50
62.93
69.07
72.32
72.82
70.81
66.96
62.22
57.59
53.78
50.99
49.01
47.52
46.17
44.79
43.28
41.53
39.30
36.36
32.55
27.92
22.67
17.06
11.26
5.27
-1.06
-7.87
-15.12
-22.55
-29.80
-36.55
-42.73
-48.54
-54.40
-60.80
-68.16
-76.81
-86.77
-97.54
-107.77
-115.26
-117.34
-111.67
-97.26
-75.01
-47.63
-18.77
8.11
30.69
48.10
60.57
68.83
73.58
75.32
74.48
71.66
67.60
63.14
58.96
55.41
52.57
50.26
48.31
46.61
45.14
43.84
42.53
40.87
38.41
34.81
30.00
24.20
17.90
11.57
5.45
-0.52
-6.64
-13.23
-20.44
-28.13
-35.99
-43.65
-50.93
-57.81
-64.46
-71.22
-78.58
-87.07
-96.94
-107.73
-117.87
-124.74
-125.30
-117.18
-99.76
-74.60
-45.07
-15.12
11.90
34.10
51.10
63.44
71.87
76.91
78.90
78.24
75.68
72.24
68.93
66.39
64.68
63.34
61.75
59.48
56.54
53.35
50.44
48.08
46.03
43.67
40.30
35.54
29.55
22.99
16.62
10.94
5.92
1.07
-4.35
-10.86
-18.56
-27.03
-35.52
-43.32
-50.08
-55.97
-61.62
-67.91
-75.63
-85.25
-96.66
-109.02
-120.63
-129.05
-131.50
-125.63
-110.46
-86.93
-57.88
-27.20
1.35
25.24
43.54
56.71
65.73
71.50
74.53
75.11
73.65
70.83
67.55
64.56
62.21
60.42
58.78
56.90
54.64
52.16
49.84
47.97
46.53
45.09
42.91
39.29
33.97
27.22
19.88
12.86
6.75
1.53
-3.42
-8.96
-15.69
-23.67
-32.41
-41.09
-48.99
-55.77
-61.61
-67.14
-73.24
-80.83
-90.47
-101.94
-113.90
-123.84
-128.53
-125.11
-112.11
-90.17
-61.99
-31.45
-2.34
22.67
42.49
57.31
67.84
74.79
78.58
79.50
78.04
74.98
71.24
67.66
64.67
62.30
60.30
58.36
56.33
54.23
52.15
50.16
48.12
45.70
42.53
38.38
33.29
27.56
21.70
16.08
10.80
5.57
-0.16
-6.83
-14.55
-22.97
-31.47
-39.47
-46.69
-53.27
-59.61
-66.28
-73.80
-82.60
-92.72
-103.52
-113.35
-119.59
-119.32
-110.28
-92.00
-66.24
-36.49
-6.85
19.32
40.21
55.59
66.13
72.67
75.74
75.59
72.63
67.64
61.82
56.47
52.54
50.34
49.50
49.19
48.47
46.72
43.76
39.91
35.75
31.83
28.38
25.15
21.48
16.59
9.95
1.54
-8.02
-17.72
-26.60
-34.11
-40.34
-45.96
-51.92
-59.06
-67.88
-78.40
-90.01
-101.34
-110.29
-114.29
-110.97
-98.98
-78.72
-52.41
-23.50
4.41
28.57
47.63
61.45
70.52
75.43
76.63
74.61
70.14
64.38
58.64
54.00
50.90
49.05
47.65
45.77
42.84
38.86
34.36
30.07
26.54
23.72
20.96
17.22
11.62
3.80
-5.77
-16.02
-25.73
-34.00
-40.67
-46.30
-51.92
-58.73
-67.65
-79.09
-92.56
-106.51
-118.33
-124.86
-123.21
-111.87
-91.31
-63.98
-33.61
-3.98
22.16
43.52
60.06
72.34
80.84
85.71
87.01
85.04
80.62
75.05
69.67
65.44
62.62
60.75
58.99
56.55
53.12
48.88
44.43
40.31
36.72
33.32
29.34
23.98
16.73
7.68
-2.49
-12.76
-22.21
-30.29
-37.07
-43.14
-49.31
-56.44
-65.20
-75.93
-88.49
-101.93
-114.28
-122.73
-124.20
-116.39
-98.73
-72.88
-42.30
-11.13
17.11
40.41
58.41
71.73
81.22
87.36
90.24
89.95
86.94
82.21
77.00
72.47
69.19
67.15
65.80
64.44
62.50
59.72
56.15
52.01
47.57
42.99
38.30
33.37
27.93
21.71
14.52
6.36
-2.52
-11.65
-20.52
-28.73
-36.18
-43.04
-49.73
-56.75
-64.63
-73.86
-84.80
-97.36
-110.65
-122.63
-130.34
-130.58
-121.09
-101.52
-73.88
-41.91
-9.89
18.68
41.87
59.35
71.74
79.92
84.53
85.99
84.74
81.50
77.25
73.02
69.54
67.07
65.39
64.03
62.59
60.86
58.87
56.72
54.41
51.69
48.17
43.48
37.56
30.68
23.38
16.20
9.39
2.86
-3.80
-10.99
-18.90
-27.37
-36.00
-44.29
-51.91
-58.87
-65.57
-72.67
-80.98
-91.04
-102.68
-114.69
-124.68
-129.57
-126.44
-113.70
-91.78
-63.23
-31.93
-1.85
24.15
44.80
60.21
71.08
78.03
81.33
81.07
77.65
72.04
65.66
59.97
55.94
53.81
53.08
52.79
51.96
49.93
46.51
42.03
37.08
32.23
27.83
23.75
19.49
14.45
8.16
0.55
-8.00
-16.92
-25.61
-33.68
-41.04
-47.86
-54.49
-61.43
-69.25
-78.50
-89.46
-101.73
-113.91
-123.59
-127.79
-123.85
-110.44
-88.19
-59.65
-28.53
1.43
27.49
48.36
64.02
75.16
82.48
86.50
87.52
85.94
82.42
77.86
73.18
69.06
65.80
63.31
61.28
59.36
57.28
54.88
52.08
48.76
44.82
40.17
34.86
29.08
23.08
17.06
11.00
4.72
-2.11
-9.68
-17.94
-26.55
-35.01
-42.87
-49.96
-56.46
-62.88
-69.95
-78.42
-88.77
-100.80
-113.26
-123.75
-129.12
-126.36
-113.71
-91.57
-62.47
-30.44
0.40
27.02
48.02
63.51
74.32
81.30
84.97
85.67
83.81
80.20
75.88
71.84
68.63
66.29
64.44
62.62
60.50
58.06
55.42
52.70
49.84
46.63
42.75
38.05
32.56
26.53
20.22
13.82
7.28
0.40
-7.04
-15.10
-23.58
-32.04
-40.03
-47.22
-53.65
-59.66
-65.93
-73.25
-82.29
-93.16
-105.07
-116.02
-123.11
-123.30
-114.45
-96.25
-70.57
-40.90
-11.20
15.25
36.69
52.81
64.23
71.77
75.94
77.00
75.22
71.24
66.11
61.05
57.03
54.45
53.00
51.87
50.19
47.44
43.61
39.19
34.83
31.05
27.93
25.07
21.75
17.25
11.07
3.24
-5.71
-14.96
-23.65
-31.24
-37.69
-43.39
-49.02
-55.27
-62.76
-71.85
-82.61
-94.47
-106.01
-114.85
-118.10
-113.22
-99.05
-76.51
-48.45
-18.80
8.71
31.61
49.06
61.46
69.68
74.43
76.10
74.95
71.46
66.50
61.17
56.49
52.99
50.65
48.98
47.31
45.08
42.09
38.51
34.77
31.29
28.26
25.45
22.26
17.97
11.97
4.15
-5.05
-14.76
-24.03
-32.14
-38.92
-44.69
-50.13
-56.07
-63.26
-72.21
-83.07
-95.29
-107.35
-116.79
-120.66
-116.38
-102.79
-80.77
-53.10
-23.62
4.05
27.48
45.71
58.98
67.95
73.23
75.21
74.27
71.07
66.55
61.73
57.35
53.61
50.27
46.87
43.09
38.95
34.80
31.13
28.25
26.10
24.07
21.22
16.56
9.57
0.46
-9.81
-19.90
-28.66
-35.60
-41.08
-46.06
-51.71
-58.98
-68.40
-79.83
-92.33
-104.05
-112.36
-114.35
-107.77
-92.00
-68.48
-40.43
-11.77
14.10
35.18
50.99
62.07
69.22
73.05
73.92
72.20
68.49
63.68
58.68
54.11
50.13
46.49
42.84
38.99
35.05
31.25
27.73
24.27
20.31
15.21
8.62
0.71
-7.90
-16.40
-24.18
-31.09
-37.50
-44.10
-51.76
-61.14
-72.39
-84.85
-96.74
-105.41
-107.92
-102.03
-87.14
-64.68
-37.70
-9.90
15.56
36.82
53.31
65.33
73.44
78.03
79.36
77.79
73.95
68.71
62.97
57.38
52.27
47.70
43.58
39.82
36.35
33.08
29.81
26.22
21.97
16.79
10.65
3.70
-3.66
-11.04
-18.20
-25.13
-32.16
-39.84
-48.81
-59.50
-71.72
-84.23
-94.77
-100.39
-98.35
-87.23
-67.55
-41.85
-13.89
12.60
34.92
51.89
63.65
70.99
74.75
75.59
74.03
70.63
66.10
61.15
56.33
51.90
47.80
43.83
39.83
35.77
31.75
27.86
24.05
20.03
15.40
9.80
3.12
-4.38
-12.17
-19.65
-26.45
-32.60
-38.50
-44.86
-52.45
-61.83
-72.92
-84.71
-95.10
-101.22
-100.33
-90.77
-72.79
-48.61
-21.71
4.32
26.85
44.68
57.76
66.61
71.72
73.42
72.03
68.15
62.74
56.90
51.53
47.03
43.29
39.93
36.55
33.04
29.55
26.30
23.31
20.24
16.47
11.34
4.60
-3.51
-12.25
-20.71
-28.20
-34.56
-40.16
-45.81
-52.43
-60.83
-71.31
-83.34
-95.30
-104.59
-108.19
-103.60
-89.87
-68.16
-41.40
-13.41
12.36
33.70
49.86
61.11
68.11
71.45
71.58
69.07
64.75
59.74
55.12
51.55
49.10
47.24
45.22
42.44
38.79
34.64
30.61
27.17
24.33
21.57
18.06
13.03
6.11
-2.46
-11.93
-21.35
-29.89
-37.18
-43.43
-49.34
-55.89
-64.07
-74.39
-86.56
-99.12
-109.57
-114.87
-112.38
-100.82
-80.88
-55.10
-27.10
-0.38
22.65
41.06
55.12
65.55
72.90
77.33
78.74
77.33
73.67
68.87
64.07
60.15
57.45
55.71
54.36
52.73
50.34
47.02
42.89
38.28
33.56
28.99
24.60
20.21
15.45
9.94
3.43
-4.12
-12.47
-21.20
-29.83
-37.95
-45.36
-52.13
-58.54
-65.08
-72.39
-81.03
-91.30
-102.84
-114.28
-123.27
-126.89
-122.54
-108.93
-86.78
-58.74
-28.58
0.00
24.48
43.92
58.60
69.31
76.63
80.77
81.84
80.22
76.87
73.04
69.86
67.89
66.94
66.31
65.20
63.06
59.89
56.13
52.43
49.29
46.91
45.00
42.95
40.03
35.74
30.03
23.31
16.29
9.58
3.49
-2.18
-7.96
-14.42
-21.89
-30.27
-39.07
-47.63
-55.36
-61.95
-67.51
-72.50
-77.65
-83.79
-91.68
-101.73
-113.65
-126.07
-136.54
-141.91
-139.24
-126.85
-105.14
-76.59
-44.99
-14.26
12.77
34.84
52.03
65.08
74.69
81.20
84.68
85.38
83.91
81.24
78.36
76.00
74.38
73.30
72.33
71.12
69.52
67.60
65.49
63.35
61.21
59.04
56.70
53.97
50.52
46.06
40.46
33.90
26.83
19.88
13.56
8.05
3.06
-2.00
-7.75
-14.56
-22.41
-30.89
-39.36
-47.23
-54.11
-59.96
-65.04
-69.93
-75.36
-82.13
-90.84
-101.62
-113.82
-125.67
-134.54
-137.39
-131.69
-116.40
-92.52
-62.90
-31.50
-2.14
22.54
41.57
55.32
64.86
71.17
74.76
75.88
74.82
72.24
69.14
66.41
64.52
63.32
62.23
60.66
58.45
55.95
53.76
52.40
51.88
51.73
51.07
48.99
44.94
38.93
31.57
23.86
16.81
10.99
6.37
2.26
-2.29
-8.03
-15.16
-23.31
-31.75
-39.72
-46.79
-52.97
-58.61
-64.27
-70.61
-78.19
-87.31
-97.61
-107.80
-115.57
-118.12
-112.98
-99.07
-77.25
-50.18
-21.50
5.37
28.11
45.81
58.61
67.12
71.89
73.28
71.72
67.90
62.90
57.93
53.91
51.29
49.89
49.11
48.30
47.04
45.20
42.98
40.55
38.03
35.28
32.06
28.15
23.50
18.24
12.63
6.86
0.97
-5.15
-11.65
-18.56
-25.70
-32.71
-39.22
-45.04
-50.31
-55.48
-61.18
-68.09
-76.63
-86.76
-97.62
-107.45
-113.73
-113.76
-105.52
-88.56
-64.37
-36.04
-7.34
18.43
39.30
54.74
65.24
71.67
74.84
75.33
73.66
70.50
66.62
62.78
59.49
56.90
54.87
53.06
51.19
49.06
46.67
44.06
41.34
38.50
35.43
31.90
27.68
22.67
16.98
10.81
4.39
-2.24
-9.17
-16.53
-24.32
-32.26
-39.93
-46.93
-53.15
-58.86
-64.65
-71.31
-79.52
-89.59
-101.11
-112.69
-121.95
-125.92
-121.94
-108.60
-86.50
-58.25
-27.68
1.39
26.19
45.53
59.55
69.07
74.94
77.78
78.08
76.38
73.40
69.93
66.59
63.68
61.15
58.79
56.41
53.94
51.48
49.19
47.14
45.24
43.22
40.66
37.13
32.41
26.59
20.05
13.32
6.76
0.44
-5.85
-12.48
-19.69
-27.44
-35.40
-43.12
-50.27
-56.80
-63.03
-69.54
-77.06
-86.17
-96.86
-108.21
-118.14
-123.74
-122.06
-111.24
-91.32
-64.53
-34.55
-5.34
20.07
40.26
55.26
65.92
73.12
77.37
78.90
77.95
75.11
71.27
67.39
64.11
61.61
59.67
57.92
56.09
54.09
52.00
49.88
47.65
45.04
41.72
37.44
32.20
26.28
20.11
14.02
8.12
2.21
-4.08
-10.99
-18.51
-26.32
-33.97
-41.12
-47.73
-54.04
-60.47
-67.53
-75.65
-85.09
-95.62
-106.18
-114.74
-118.51
-114.83
-102.13
-80.87
-53.54
-23.90
4.28
28.38
47.41
61.65
71.92
78.84
82.62
83.29
81.13
76.95
71.88
67.06
63.16
60.31
58.15
56.20
54.06
51.58
48.74
45.57
42.03
38.10
33.79
29.18
24.35
19.34
14.05
8.30
1.91
-5.13
-12.64
-20.29
-27.68
-34.55
-40.80
-46.65
-52.52
-58.94
-66.50
-75.60
-86.17
-97.35
-107.35
-113.59
-113.35
-104.75
-87.55
-63.48
-35.82
-8.29
16.06
35.59
50.06
60.05
66.28
69.17
68.90
65.87
60.91
55.29
50.32
46.87
45.07
44.29
43.51
41.82
38.80
34.65
30.07
25.84
22.51
20.01
17.71
14.65
9.96
3.30
-4.98
-13.93
-22.44
-29.73
-35.64
-40.65
-45.59
-51.35
-58.53
-67.39
-77.76
-88.88
-99.27
-106.68
-108.57
-102.81
-88.58
-66.93
-40.62
-13.23
11.99
32.98
49.19
61.06
69.35
74.52
76.69
75.91
72.53
67.45
61.90
57.06
53.61
51.56
50.32
49.03
46.95
43.80
39.74
35.29
30.97
27.11
23.58
19.93
15.55
9.95
2.97
-5.05
-13.49
-21.67
-29.16
-35.92
-42.29
-48.79
-55.92
-64.04
-73.34
-83.80
-94.98
-105.73
-114.04
-117.33
-113.22
-100.49
-79.78
-53.59
-25.50
1.06
23.75
41.76
55.43
65.53
72.62
76.89
78.35
77.17
73.97
69.66
65.20
61.35
58.45
56.40
54.86
53.35
51.44
48.87
45.58
41.72
37.55
33.31
29.08
24.72
19.88
14.17
7.40
-0.33
-8.63
-16.95
-24.87
-32.16
-38.88
-45.33
-51.85
-58.81
-66.61
-75.61
-85.98
-97.36
-108.45
-116.97
-120.11
-115.41
-101.70
-79.80
-52.39
-23.15
4.38
27.74
46.00
59.38
68.64
74.50
77.39
77.61
75.63
72.21
68.30
64.79
62.14
60.35
59.02
57.66
55.93
53.74
51.16
48.26
44.99
41.19
36.75
31.71
26.28
20.77
15.35
9.95
4.27
-2.00
-9.05
-16.78
-24.86
-32.85
-40.39
-47.34
-53.83
-60.23
-67.15
-75.23
-84.97
-96.25
-107.97
-117.90
-123.05
-120.54
-108.75
-88.04
-60.81
-30.79
-1.80
23.36
43.42
58.44
69.16
76.31
80.34
81.48
80.07
76.81
72.67
68.61
65.23
62.64
60.59
58.68
56.67
54.59
52.53
50.52
48.33
45.56
41.82
36.98
31.27
25.14
19.08
13.31
7.70
1.86
-4.63
-11.98
-20.01
-28.25
-36.15
-43.30
-49.69
-55.66
-61.85
-68.98
-77.67
-88.16
-99.98
-111.65
-120.76
-124.33
-119.77
-105.90
-83.60
-55.68
-26.05
1.64
24.91
42.93
56.04
65.05
70.63
73.10
72.71
69.93
65.66
61.05
57.15
54.54
53.17
52.47
51.63
49.99
47.25
43.53
39.33
35.20
31.54
28.37
25.31
21.70
16.91
10.58
2.82
-5.82
-14.53
-22.57
-29.55
-35.54
-41.02
-46.64
-53.04
-60.74
-70.01
-80.77
-92.33
-103.14
-110.82
-112.64
-106.35
-91.22
-68.46
-41.00
-12.58
13.48
35.10
51.57
63.19
70.52
74.08
74.27
71.66
67.21
62.11
57.52
54.07
51.71
49.83
47.61
44.44
40.23
35.44
30.84
27.08
24.36
22.19
19.54
15.28
8.71
-0.09
-10.27
-20.52
-29.66
-37.12
-43.11
-48.46
-54.30
-61.68
-71.25
-83.00
-95.96
-108.09
-116.53
-118.31
-111.28
-95.00
-71.05
-42.62
-13.45
13.28
35.66
53.14
66.06
75.02
80.42
82.55
81.70
78.51
73.96
69.18
65.04
61.94
59.67
57.58
55.00
51.52
47.16
42.37
37.72
33.58
29.87
26.08
21.47
15.40
7.60
-1.68
-11.75
-21.78
-30.97
-38.95
-45.82
-52.10
-58.62
-66.24
-75.64
-87.06
-99.98
-112.91
-123.41
-128.50
-125.48
-112.90
-91.20
-62.85
-31.56
-1.19
25.34
46.70
62.94
74.86
83.32
88.74
91.24
90.89
88.16
83.93
79.33
75.31
72.33
70.26
68.59
66.74
64.37
61.41
57.98
54.18
49.98
45.31
40.09
34.43
28.47
22.32
15.92
9.05
1.44
-6.95
-15.91
-24.99
-33.71
-41.77
-49.19
-56.28
-63.60
-71.83
-81.60
-93.19
-106.07
-118.60
-128.04
-131.18
-125.36
-109.51
-84.76
-54.20
-21.93
8.20
33.60
53.29
67.56
77.32
83.42
86.43
86.73
84.78
81.31
77.24
73.41
70.30
67.86
65.68
63.27
60.43
57.28
54.15
51.27
48.58
45.71
42.21
37.79
32.43
26.44
20.11
13.65
7.01
-0.02
-7.63
-15.82
-24.33
-32.72
-40.52
-47.45
-53.58
-59.37
-65.56
-73.00
-82.29
-93.45
-105.52
-116.41
-123.21
-122.93
-113.55
-94.89
-68.90
-39.10
-9.51
16.67
37.68
53.33
64.31
71.53
75.59
76.78
75.36
71.84
67.05
62.03
57.63
54.36
52.23
50.85
49.66
48.14
45.98
43.11
39.66
35.87
31.92
27.87
23.61
18.94
13.60
7.43
0.40
-7.33
-15.46
-23.59
-31.34
-38.47
-44.95
-51.04
-57.24
-64.17
-72.47
-82.47
-93.86
-105.44
-115.02
-119.81
-117.17
-105.58
-85.32
-58.64
-29.08
-0.42
24.42
43.95
58.08
67.47
72.97
75.16
74.44
71.26
66.42
60.97
56.01
52.28
49.96
48.64
47.55
45.94
43.36
39.84
35.75
31.64
27.91
24.60
21.38
17.62
12.71
6.27
-1.64
-10.53
-19.62
-28.15
-35.65
-42.07
-47.80
-53.46
-59.70
-67.09
-76.02
-86.59
-98.37
-110.10
-119.55
-123.80
-120.10
-106.94
-84.91
-56.66
-26.23
2.46
26.67
45.42
59.11
68.74
75.14
78.69
79.49
77.79
74.19
69.63
65.06
61.15
58.14
55.81
53.74
51.46
48.67
45.35
41.67
37.95
34.41
31.06
27.62
23.62
18.55
12.10
4.27
-4.58
-13.88
-22.95
-31.26
-38.53
-44.82
-50.53
-56.26
-62.70
-70.48
-79.99
-91.15
-103.14
-114.20
-121.71
-122.79
-115.18
-98.26
-73.46
-43.98
-13.78
13.65
36.24
53.51
66.04
74.72
80.21
82.77
82.59
80.11
76.08
71.50
67.22
63.72
61.06
58.94
56.93
54.62
51.78
48.37
44.51
40.45
36.41
32.47
28.52
24.28
19.38
13.52
6.57
-1.35
-9.91
-18.66
-27.15
-35.02
-42.10
-48.51
-54.63
-61.10
-68.67
-77.96
-89.04
-101.06
-112.05
-119.18
-119.47
-110.86
-93.07
-67.90
-38.79
-9.66
16.22
37.05
52.55
63.42
70.65
74.92
76.55
75.72
72.87
68.74
64.28
60.32
57.26
55.05
53.25
51.35
49.03
46.20
43.02
39.67
36.31
32.92
29.37
25.44
20.90
15.53
9.19
1.91
-6.07
-14.28
-22.25
-29.63
-36.35
-42.66
-48.95
-55.68
-63.24
-71.95
-81.84
-92.46
-102.48
-109.71
-111.49
-105.62
-91.24
-69.45
-43.05
-15.61
9.65
30.75
47.06
58.83
66.59
70.67
71.28
68.81
64.09
58.37
52.98
48.86
46.28
44.81
43.63
41.89
39.18
35.59
31.62
27.91
24.82
22.24
19.59
16.02
10.88
3.99
-4.19
-12.74
-20.66
-27.28
-32.58
-37.13
-41.89
-47.84
-55.64
-65.50
-76.94
-88.73
-98.82
-104.67
-103.80
-94.66
-77.29
-53.57
-26.70
-0.20
23.14
41.83
55.69
65.25
71.13
73.69
73.14
69.89
64.75
58.94
53.65
49.68
47.16
45.54
43.96
41.68
38.38
34.32
30.06
26.21
22.97
20.03
16.64
11.97
5.50
-2.71
-12.02
-21.49
-30.23
-37.76
-44.10
-49.75
-55.50
-62.22
-70.64
-81.03
-92.94
-104.86
-114.31
-118.36
-114.51
-101.66
-80.62
-54.03
-25.46
1.67
25.01
43.64
57.72
67.88
74.66
78.28
78.84
76.65
72.51
67.57
63.02
59.62
57.46
55.96
54.25
51.60
47.76
43.05
38.12
33.65
30.03
27.14
24.36
20.85
15.82
8.86
0.19
-9.46
-19.06
-27.71
-35.01
-41.19
-46.92
-53.12
-60.61
-69.91
-81.07
-93.47
-105.60
-115.10
-119.19
-115.39
-102.53
-81.32
-54.29
-25.08
2.76
26.70
45.65
59.72
69.63
76.13
79.75
80.83
79.77
77.10
73.52
69.70
66.09
62.92
60.12
57.55
55.09
52.69
50.41
48.24
46.07
43.59
40.41
36.26
31.06
25.04
18.55
11.93
5.24
-1.68
-9.08
-17.02
-25.28
-33.38
-40.83
-47.40
-53.24
-58.88
-65.05
-72.44
-81.54
-92.37
-104.16
-115.18
-122.84
-124.20
-116.97
-100.43
-75.95
-46.67
-16.54
10.95
33.64
50.93
63.30
71.58
76.49
78.49
77.99
75.63
72.28
68.86
66.01
63.94
62.37
60.81
58.86
56.40
53.68
51.08
48.83
46.86
44.76
41.95
38.01
32.84
26.79
20.42
14.28
8.59
3.18
-2.39
-8.63
-15.81
-23.81
-32.15
-40.14
-47.24
-53.30
-58.66
-64.13
-70.70
-79.12
-89.58
-101.28
-112.38
-120.26
-122.14
-115.93
-101.07
-78.85
-52.13
-24.44
1.04
22.32
38.79
50.89
59.38
64.88
67.57
67.55
65.05
60.73
55.66
50.91
47.28
45.00
43.75
42.96
42.00
40.47
38.26
35.42
32.12
28.49
24.60
20.37
15.66
10.28
4.10
-2.81
-10.15
-17.42
-24.16
-30.16
-35.63
-41.06
-47.04
-54.00
-62.15
-71.56
-82.11
-93.34
-104.06
-112.22
-115.20
-110.60
-97.29
-76.07
-49.63
-21.66
4.39
26.32
43.46
56.26
65.51
71.68
74.88
75.11
72.72
68.54
63.73
59.38
56.18
54.21
53.04
52.06
50.71
48.68
45.97
42.77
39.33
35.78
32.09
28.08
23.45
17.95
11.41
3.90
-4.29
-12.70
-20.80
-28.17
-34.64
-40.43
-46.07
-52.26
-59.66
-68.76
-79.63
-91.84
-104.22
-114.79
-120.97
-120.15
-110.58
-92.19
-66.80
-37.70
-8.63
17.43
38.86
55.46
67.85
76.78
82.69
85.75
86.13
84.28
81.00
77.15
73.42
70.19
67.42
64.93
62.51
60.06
57.56
55.00
52.27
49.14
45.33
40.66
35.18
29.18
22.99
16.88
10.84
4.60
-2.17
-9.68
-17.82
-26.18
-34.25
-41.64
-48.27
-54.44
-60.71
-67.79
-76.35
-86.76
-98.80
-111.29
-122.01
-127.97
-126.31
-115.32
-95.20
-68.23
-38.06
-8.51
17.51
38.60
54.66
66.30
74.15
78.66
80.12
79.02
76.11
72.36
68.68
65.57
63.14
61.11
59.16
57.07
54.90
52.81
50.91
49.06
46.86
43.83
39.59
34.18
28.00
21.68
15.71
10.24
5.00
-0.55
-6.87
-14.10
-21.98
-29.99
-37.59
-44.45
-50.60
-56.40
-62.46
-69.52
-78.14
-88.41
-99.61
-109.97
-116.85
-117.41
-109.56
-92.87
-68.92
-40.87
-12.45
13.15
34.06
49.85
60.99
68.22
72.12
73.01
71.23
67.41
62.49
57.54
53.39
50.44
48.62
47.50
46.54
45.31
43.55
41.17
38.22
34.84
31.20
27.45
23.64
19.64
15.12
9.71
3.17
-4.46
-12.74
-21.06
-28.82
-35.70
-41.77
-47.41
-53.17
-59.57
-67.04
-75.89
-86.09
-97.05
-107.26
-114.34
-115.53
-108.61
-92.92
-69.78
-42.28
-14.16
11.33
32.33
48.46
60.29
68.60
73.85
76.15
75.57
72.50
67.78
62.53
57.75
54.11
51.73
50.33
49.37
48.36
46.99
45.11
42.63
39.47
35.55
30.87
25.58
19.99
14.43
9.05
3.71
-1.95
-8.28
-15.39
-23.06
-30.86
-38.36
-45.35
-51.92
-58.44
-65.42
-73.41
-82.76
-93.29
-104.01
-112.92
-117.40
-114.89
-103.85
-84.52
-58.97
-30.49
-2.55
22.14
42.19
57.38
68.20
75.30
79.21
80.39
79.33
76.71
73.31
69.85
66.79
64.23
62.01
59.87
57.61
55.29
52.99
50.81
48.59
46.00
42.60
38.11
32.58
26.39
20.07
14.00
8.25
2.51
-3.71
-10.73
-18.54
-26.72
-34.67
-41.88
-48.19
-53.87
-59.47
-65.71
-73.23
-82.45
-93.25
-104.73
-115.02
-121.43
-121.13
-112.12
-94.15
-69.09
-40.43
-12.16
12.52
32.01
46.28
56.33
63.25
67.75
70.00
70.07
68.18
64.93
61.14
57.57
54.65
52.46
50.75
49.19
47.46
45.37
42.89
40.11
37.14
34.02
30.69
26.95
22.55
17.24
10.94
3.75
-4.00
-11.88
-19.47
-26.45
-32.70
-38.24
-43.25
-48.00
-52.93
-58.60
-65.64
-74.48
-84.97
-96.01
-105.44
-110.38
-108.16
-97.29
-78.17
-53.14
-25.73
0.47
22.79
40.04
52.32
60.45
65.32
67.60
67.73
66.09
63.23
59.84
56.60
54.01
52.15
50.78
49.45
47.82
45.69
43.16
40.41
37.56
34.53
31.10
27.05
22.32
17.02
11.35
5.51
-0.48
-6.74
-13.35
-20.30
-27.40
-34.37
-40.95
-47.07
-52.91
-58.87
-65.53
-73.45
-82.97
-93.82
-104.79
-113.72
-117.84
-114.60
-102.69
-82.64
-56.79
-28.64
-1.62
21.82
40.65
54.97
65.40
72.52
76.67
78.08
77.13
74.53
71.18
67.80
64.78
62.12
59.56
56.93
54.24
51.74
49.67
48.04
46.52
44.55
41.50
37.06
31.39
25.02
18.60
12.57
6.95
1.36
-4.72
-11.63
-19.35
-27.46
-35.35
-42.47
-48.65
-54.08
-59.35
-65.21
-72.43
-81.47
-92.20
-103.50
-113.26
-118.68
-117.04
-106.73
-87.94
-62.78
-34.68
-7.24
16.80
36.16
50.81
61.47
68.87
73.50
75.55
75.20
72.90
69.35
65.43
61.83
59.01
56.98
55.49
54.21
52.90
51.52
50.11
48.64
46.85
44.32
40.60
35.52
29.35
22.73
16.40
10.86
6.13
1.75
-2.99
-8.72
-15.70
-23.70
-32.07
-40.07
-47.18
-53.24
-58.61
-63.96
-70.08
-77.63
-86.79
-97.04
-106.94
-114.17
-116.03
-110.26
-95.92
-74.03
-47.37
-19.63
5.80
26.74
42.59
53.77
61.11
65.26
66.54
65.28
62.10
57.96
53.90
50.72
48.67
47.52
46.81
46.04
44.96
43.44
41.47
39.05
36.18
32.86
29.12
25.00
20.47
15.48
9.91
3.68
-3.17
-10.46
-17.90
-25.15
-31.93
-38.07
-43.65
-48.93
-54.41
-60.73
-68.51
-77.97
-88.65
-99.10
-106.99
-109.65
-104.95
-92.10
-72.04
-47.24
-20.87
4.11
25.64
42.72
55.23
63.51
68.04
69.39
68.23
65.38
61.70
57.96
54.68
52.09
50.21
48.83
47.68
46.48
44.96
42.97
40.54
37.74
34.69
31.42
27.82
23.69
18.82
13.07
6.41
-1.03
-8.99
-17.14
-25.03
-32.27
-38.62
-44.16
-49.32
-54.81
-61.46
-69.95
-80.50
-92.50
-104.38
-113.65
-117.42
-113.29
-100.26
-79.18
-52.64
-24.16
2.85
26.01
44.28
57.76
67.14
73.22
76.64
77.93
77.58
76.16
74.17
71.98
69.75
67.38
64.69
61.58
58.16
54.73
51.65
49.11
46.96
44.73
41.87
38.00
33.13
27.54
21.66
15.74
9.73
3.40
-3.48
-10.97
-18.87
-26.79
-34.36
-41.36
-47.77
-53.80
-59.84
-66.43
-74.19
-83.61
-94.68
-106.41
-116.73
-122.75
-121.62
-111.56
-92.66
-67.06
-38.25
-9.93
15.04
35.29
50.72
61.94
69.63
74.23
76.05
75.54
73.43
70.70
68.23
66.49
65.41
64.53
63.32
61.49
59.19
56.88
55.03
53.79
52.85
51.48
48.88
44.51
38.43
31.26
23.97
17.41
11.97
7.39
2.88
-2.49
-9.36
-17.76
-27.06
-36.26
-44.44
-51.13
-56.52
-61.36
-66.64
-73.24
-81.66
-91.82
-102.86
-113.12
-120.26
-121.70
-115.36
-100.50
-78.11
-50.82
-22.14
4.60
27.10
44.45
56.87
65.17
70.18
72.54
72.76
71.33
68.89
66.08
63.42
61.17
59.29
57.54
55.70
53.62
51.41
49.23
47.24
45.37
43.32
40.64
36.95
32.17
26.55
20.59
14.75
9.21
3.77
-2.01
-8.55
-15.92
-23.79
-31.55
-38.59
-44.63
-49.84
-54.82
-60.36
-67.18
-75.69
-85.60
-95.80
-104.33
-108.68
-106.50
-96.43
-78.74
-55.43
-29.64
-4.66
17.01
34.16
46.73
55.28
60.39
62.47
61.83
58.97
54.74
50.27
46.54
44.11
42.83
42.07
40.97
38.91
35.76
31.93
28.09
24.83
22.34
20.23
17.78
14.23
9.13
2.62
-4.72
-12.02
-18.58
-24.11
-28.79
-33.21
-38.14
-44.22
-51.87
-61.02
-70.99
-80.41
-87.38
-89.76
-85.76
-74.64
-57.04
-34.99
-11.42
10.67
28.99
42.40
50.86
55.07
55.97
54.42
51.05
46.43
41.14
35.78
30.89
26.84
23.72
21.40
19.54
17.78
15.73
13.10
9.67
5.37
0.32
-5.23
-10.97
-16.65
-22.14
-27.49
-32.89
-38.66
-45.17
-52.77
-61.49
-70.84
-79.46
-85.29
-85.98
-79.77
-66.24
-46.69
-23.78
-0.76
19.65
35.80
47.36
54.84
59.08
60.72
60.15
57.59
53.35
47.98
42.20
36.73
32.04
28.17
24.76
21.20
16.91
11.56
5.24
-1.63
-8.53
-15.02
-20.98
-26.67
-32.59
-39.34
-47.41
-57.01
-67.98
-79.54
-90.29
-98.24
-101.13
-97.09
-85.37
-66.70
-43.33
-18.35
5.25
25.42
41.33
53.22
61.72
67.35
70.25
70.38
67.83
63.10
57.06
50.78
45.18
40.78
37.62
35.30
33.18
30.55
26.91
22.06
16.12
9.43
2.38
-4.71
-11.71
-18.61
-25.58
-32.94
-41.17
-50.83
-62.20
-74.91
-87.50
-97.54
-102.11
-98.77
-86.53
-66.31
-40.73
-13.27
12.85
35.48
53.75
67.81
78.09
84.96
88.51
88.89
86.51
82.28
77.37
72.80
69.05
65.95
62.84
59.01
54.19
48.64
43.08
38.21
34.34
31.12
27.71
23.08
16.52
7.96
-2.00
-12.34
-22.05
-30.52
-37.79
-44.44
-51.40
-59.65
-69.86
-82.21
-96.00
-109.58
-120.37
-125.34
-121.90
-108.83
-86.86
-58.63
-27.85
1.92
28.17
49.88
67.13
80.50
90.41
96.96
100.16
100.28
98.06
94.56
90.85
87.70
85.32
83.46
81.68
79.62
77.22
74.70
72.33
70.24
68.24
65.84
62.54
58.06
52.57
46.61
40.78
35.48
30.66
25.85
20.47
14.13
6.89
-0.78
-8.23
-14.95
-20.83
-26.22
-31.76
-38.06
-45.45
-53.78
-62.54
-71.04
-78.72
-85.35
-91.20
-96.85
-103.19
-111.08
-121.10
-133.06
-145.64
-156.31
-161.70
-158.59
-144.99
-121.05
-89.16
-53.23
-17.47
14.79
41.77
63.09
79.21
90.75
98.14
101.72
101.99
99.79
96.24
92.43
89.09
86.43
84.21
81.97
79.40
76.53
73.69
71.37
69.88
69.13
68.58
67.41
64.84
60.53
54.66
47.92
41.14
34.98
29.62
24.73
19.67
13.93
7.35
0.25
-6.74
-13.03
-18.39
-23.05
-27.67
-33.00
-39.48
-47.10
-55.36
-63.52
-70.93
-77.28
-82.69
-87.64
-92.90
-99.29
-107.53
-117.90
-129.81
-141.56
-150.37
-152.99
-146.74
-130.37
-104.81
-72.93
-38.69
-5.98
22.44
45.32
62.75
75.45
84.23
89.65
92.04
91.83
89.68
86.43
82.89
79.59
76.65
73.90
71.10
68.21
65.48
63.25
61.81
61.13
60.82
60.19
58.52
55.35
50.62
44.73
38.39
32.32
26.94
22.19
17.65
12.74
7.13
0.87
-5.63
-11.80
-17.35
-22.36
-27.32
-32.89
-39.52
-47.26
-55.72
-64.19
-71.93
-78.50
-83.86
-88.46
-93.07
-98.60
-105.90
-115.41
-126.78
-138.66
-148.61
-153.58
-150.68
-138.20
-116.25
-86.95
-53.79
-20.59
9.47
34.51
53.97
68.20
77.97
84.04
87.10
87.78
86.71
84.55
81.86
78.99
76.08
73.13
70.11
67.18
64.65
62.93
62.26
62.57
63.37
63.87
63.25
60.95
56.87
51.32
44.97
38.50
32.46
27.04
22.09
17.21
11.96
6.08
-0.42
-7.24
-14.01
-20.52
-26.88
-33.47
-40.68
-48.62
-56.96
-65.07
-72.31
-78.40
-83.56
-88.46
-94.02
-101.13
-110.36
-121.70
-134.28
-146.13
-154.39
-155.89
-148.16
-130.30
-103.55
-71.00
-36.61
-4.11
23.88
46.23
62.99
74.86
82.67
87.18
88.98
88.64
86.78
84.03
80.96
77.97
75.28
72.91
70.79
68.88
67.18
65.78
64.71
63.86
62.93
61.50
59.19
55.80
51.38
46.23
40.66
34.97
29.27
23.54
17.69
11.65
5.41
-0.99
-7.54
-14.38
-21.71
-29.72
-38.39
-47.37
-56.09
-63.87
-70.37
-75.71
-80.58
-85.96
-92.90
-102.06
-113.45
-126.16
-138.29
-147.01
-149.21
-142.27
-125.07
-98.47
-65.32
-29.62
4.62
34.42
58.28
76.07
88.49
96.39
100.54
101.46
99.68
95.87
90.87
85.58
80.79
76.92
73.94
71.52
69.16
66.62
63.98
61.63
59.90
58.86
58.00
56.49
53.48
48.47
41.62
33.61
25.42
17.98
11.75
6.61
1.95
-3.11
-9.33
-17.06
-26.09
-35.77
-45.25
-53.86
-61.32
-67.77
-73.75
-79.95
-87.16
-96.02
-106.75
-118.81
-130.55
-139.33
-141.98
-135.75
-119.39
-93.68
-61.41
-26.59
6.68
35.32
57.69
73.59
83.70
89.01
90.43
88.74
84.71
79.22
73.24
67.63
62.91
59.20
56.25
53.72
51.35
49.04
46.80
44.61
42.30
39.69
36.60
32.97
28.84
24.18
18.88
12.75
5.63
-2.47
-11.28
-20.39
-29.32
-37.65
-45.17
-51.90
-58.17
-64.59
-71.99
-81.21
-92.65
-105.77
-118.78
-128.74
-132.24
-126.42
-110.04
-84.10
-51.68
-17.05
15.57
43.14
64.28
79.05
88.36
93.19
94.29
92.20
87.54
81.19
74.27
67.87
62.65
58.73
55.67
52.80
49.57
45.79
41.61
37.47
33.79
30.75
28.13
25.36
21.66
16.39
9.24
0.43
-9.38
-19.36
-28.75
-37.08
-44.34
-50.90
-57.42
-64.71
-73.56
-84.51
-97.57
-111.81
-125.21
-134.80
-137.31
-130.16
-112.43
-85.42
-52.42
-17.75
14.47
41.39
61.93
76.40
85.86
91.38
93.63
93.06
90.07
85.31
79.63
73.91
68.76
64.45
60.84
57.66
54.64
51.61
48.52
45.38
42.16
38.80
35.17
31.07
26.31
20.66
13.97
6.22
-2.43
-11.65
-20.96
-29.92
-38.21
-45.73
-52.73
-59.69
-67.33
-76.42
-87.53
-100.67
-114.95
-128.31
-137.73
-139.92
-132.31
-114.10
-86.67
-53.36
-18.45
14.10
41.59
62.95
78.40
88.77
94.96
97.60
97.25
94.49
90.07
84.83
79.47
74.41
69.78
65.52
61.53
57.85
54.63
52.08
50.24
48.87
47.45
45.29
41.79
36.74
30.33
23.12
15.71
8.46
1.34
-5.99
-13.89
-22.47
-31.49
-40.45
-48.87
-56.52
-63.57
-70.58
-78.33
-87.61
-98.88
-111.91
-125.42
-136.99
-143.48
-141.77
-129.89
-107.83
-77.71
-43.26
-8.62
22.75
48.84
69.10
83.93
94.05
100.00
102.17
101.00
97.24
91.98
86.41
81.40
77.31
73.93
70.80
67.60
64.31
61.29
58.92
57.32
56.14
54.64
51.97
47.52
41.18
33.41
25.07
17.02
9.83
3.50
-2.50
-9.02
-16.74
-25.91
-36.19
-46.78
-56.78
-65.58
-73.06
-79.61
-86.10
-93.57
-102.96
-114.61
-127.80
-140.49
-149.46
-151.20
-142.98
-123.94
-95.52
-61.10
-24.94
9.06
38.27
61.55
78.89
90.82
97.97
100.93
100.38
97.25
92.73
88.01
83.95
80.77
78.11
75.28
71.75
67.50
63.02
59.09
56.32
54.79
53.95
52.80
50.34
45.94
39.57
31.79
23.53
15.69
8.79
2.82
-2.80
-8.94
-16.34
-25.26
-35.33
-45.68
-55.34
-63.64
-70.46
-76.28
-82.01
-88.70
-97.27
-108.21
-121.26
-135.02
-146.91
-153.53
-151.52
-138.74
-115.14
-83.04
-46.48
-9.97
22.72
49.37
69.35
83.09
91.49
95.43
95.72
93.16
88.69
83.34
78.00
73.32
69.50
66.46
63.94
61.75
59.80
58.07
56.50
54.85
52.71
49.58
45.15
39.41
32.72
25.67
18.81
12.41
6.29
-0.03
-7.11
-15.26
-24.37
-33.98
-43.43
-52.21
-60.13
-67.44
-74.72
-82.81
-92.42
-103.80
-116.19
-127.62
-135.14
-135.46
-126.18
-106.72
-78.75
-45.79
-12.03
18.86
44.59
64.37
78.43
87.42
91.95
92.55
89.80
84.55
77.89
70.96
64.72
59.70
56.03
53.46
51.62
50.08
48.51
46.64
44.24
41.14
37.19
32.41
26.94
21.10
15.15
9.22
3.21
-3.24
-10.48
-18.69
-27.70
-37.06
-46.16
-54.53
-61.98
-68.73
-75.36
-82.73
-91.72
-102.83
-115.60
-128.24
-137.73
-140.51
-133.66
-116.05
-88.94
-55.70
-20.70
11.97
39.58
60.97
76.24
86.11
91.39
92.83
91.17
87.29
82.23
76.99
72.27
68.34
65.07
62.08
59.08
56.03
53.08
50.38
47.95
45.50
42.62
38.92
34.23
28.69
22.59
16.22
9.69
2.86
-4.55
-12.74
-21.70
-31.09
-40.36
-48.90
-56.37
-62.83
-68.84
-75.30
-83.23
-93.40
-105.87
-119.60
-132.29
-140.69
-141.33
-131.76
-111.49
-82.41
-48.33
-13.73
17.56
43.31
62.99
77.18
86.79
92.42
94.32
92.74
88.28
82.04
75.39
69.56
65.20
62.23
59.95
57.46
54.14
49.87
45.15
40.72
37.17
34.54
32.24
29.25
24.54
17.58
8.51
-1.86
-12.42
-22.19
-30.63
-37.78
-44.16
-50.56
-57.84
-66.72
-77.61
-90.34
-103.86
-116.14
-124.36
-125.54
-117.52
-99.74
-73.71
-42.64
-10.51
19.03
43.58
62.16
74.95
82.64
86.00
85.72
82.56
77.43
71.44
65.56
60.36
55.86
51.66
47.28
42.47
37.43
32.61
28.43
24.97
21.82
18.25
13.45
6.99
-1.04
-10.03
-19.11
-27.54
-35.03
-41.81
-48.63
-56.43
-66.00
-77.56
-90.39
-102.63
-111.50
-113.93
-107.53
-91.53
-67.22
-37.71
-6.94
21.53
45.39
63.81
76.99
85.56
90.03
90.75
88.07
82.71
75.67
68.13
61.01
54.82
49.58
45.03
40.86
36.85
32.91
28.93
24.70
19.89
14.18
7.41
-0.31
-8.58
-16.84
-24.62
-31.76
-38.54
-45.72
-54.22
-64.76
-77.35
-90.82
-102.80
-110.21
-110.07
-100.58
-81.87
-56.04
-26.54
2.91
29.38
51.21
67.91
79.69
86.94
89.98
89.19
85.22
79.14
72.23
65.66
60.07
55.49
51.45
47.34
42.85
38.10
33.61
29.92
27.24
25.19
22.86
19.15
13.27
5.12
-4.66
-14.91
-24.47
-32.63
-39.37
-45.27
-51.27
-58.41
-67.50
-78.82
-91.78
-104.70
-114.84
-119.04
-114.65
-100.51
-77.59
-48.69
-17.65
11.91
37.46
57.81
72.86
82.99
88.70
90.46
88.86
84.75
79.18
73.27
67.84
63.35
59.80
56.90
54.27
51.58
48.62
45.32
41.73
37.91
33.89
29.63
25.00
19.82
14.00
7.50
0.45
-7.00
-14.63
-22.29
-29.82
-37.13
-44.17
-50.97
-57.72
-64.72
-72.39
-81.21
-91.44
-102.93
-114.70
-124.80
-130.52
-129.10
-118.64
-99.08
-72.33
-41.83
-11.42
15.82
38.25
55.54
68.16
76.67
81.45
82.76
81.10
77.34
72.65
68.12
64.40
61.53
59.17
56.89
54.42
51.81
49.30
47.04
44.96
42.65
39.57
35.33
29.92
23.74
17.44
11.47
5.89
0.30
-5.91
-13.11
-21.24
-29.77
-38.00
-45.37
-51.75
-57.47
-63.14
-69.53
-77.30
-86.85
-97.96
-109.50
-119.29
-124.46
-122.21
-110.83
-90.53
-63.52
-33.37
-3.81
22.29
43.47
59.57
71.09
78.70
82.85
83.87
82.25
78.74
74.34
69.98
66.29
63.46
61.24
59.22
57.03
54.57
52.02
49.70
47.79
46.17
44.37
41.67
37.52
31.76
24.79
17.42
10.53
4.64
-0.32
-4.96
-10.17
-16.63
-24.50
-33.34
-42.31
-50.51
-57.38
-62.93
-67.67
-72.48
-78.35
-86.09
-96.04
-107.73
-119.66
-129.26
-133.47
-129.55
-116.14
-93.87
-65.29
-34.12
-4.09
22.04
42.98
58.68
69.81
77.18
81.36
82.78
81.86
79.22
75.68
72.03
68.87
66.43
64.54
62.84
61.03
59.01
56.94
55.06
53.52
52.23
50.84
48.90
45.95
41.75
36.31
29.92
23.06
16.27
10.02
4.55
-0.18
-4.54
-9.09
-14.41
-20.97
-28.83
-37.61
-46.61
-54.97
-62.04
-67.65
-72.18
-76.46
-81.50
-88.17
-96.86
-107.24
-118.04
-127.09
-131.68
-129.23
-118.12
-98.38
-71.87
-41.84
-11.92
14.85
36.73
53.27
64.95
72.55
76.81
78.25
77.40
74.94
71.70
68.49
65.86
63.98
62.60
61.27
59.64
57.61
55.38
53.32
51.72
50.64
49.84
48.84
47.16
44.44
40.59
35.69
29.97
23.73
17.28
10.91
4.90
-0.58
-5.57
-10.34
-15.36
-21.08
-27.69
-35.04
-42.62
-49.83
-56.18
-61.57
-66.29
-70.89
-76.03
-82.34
-90.19
-99.55
-109.66
-118.87
-124.72
-124.51
-116.17
-99.14
-74.75
-45.93
-16.32
10.85
33.53
51.00
63.52
71.69
76.07
77.07
75.21
71.28
66.39
61.72
58.11
55.85
54.67
53.89
52.90
51.35
49.27
47.03
44.99
43.26
41.67
39.73
36.91
32.90
27.73
21.81
15.78
10.12
5.00
0.15
-4.95
-10.82
-17.60
-25.07
-32.66
-39.74
-45.93
-51.23
-56.05
-61.10
-67.20
-75.03
-84.88
-96.30
-107.90
-117.33
-121.78
-118.74
-106.89
-86.72
-60.58
-32.01
-4.69
18.60
36.60
49.44
58.05
63.43
66.20
66.63
64.88
61.38
56.89
52.23
48.04
44.62
41.93
39.82
38.21
37.07
36.31
35.68
34.75
33.11
30.51
26.91
22.46
17.35
11.69
5.56
-0.99
-7.86
-14.89
-21.93
-28.82
-35.47
-41.82
-47.95
-54.07
-60.52
-67.78
-76.33
-86.32
-97.31
-107.93
-116.03
-119.00
-114.63
-101.84
-81.34
-55.47
-27.55
-0.84
22.30
40.86
54.88
64.95
71.66
75.36
76.30
74.83
71.55
67.23
62.71
58.62
55.29
52.80
50.95
49.45
48.00
46.37
44.42
42.07
39.21
35.70
31.40
