1628871614.00
64.000000
-0.00
-0.00
-0.00
-0.00
-0.00
-0.00
-0.00
-0.00
-0.00
-0.00
0.00
0.01
0.01
-0.00
-0.03
-0.05
-0.05
0.00
0.13
0.36
0.66
1.01
1.37
1.72
2.06
2.40
2.79
3.24
3.80
4.42
5.06
5.66
6.20
6.68
7.15
7.68
8.31
9.14
10.09
11.04
11.88
12.56
13.14
13.76
14.65
15.96
17.91
20.32
22.90
25.38
27.58
29.57
31.68
34.32
37.81
42.54
48.15
54.10
59.83
64.97
69.58
74.14
79.34
85.71
93.76
103.00
112.62
121.73
129.77
136.75
143.30
150.75
157.77
166.64
177.95
191.79
206.97
220.57
228.25
225.36
208.53
176.87
132.76
80.05
23.07
-34.94
-92.44
-149.16
-205.23
-260.37
-313.74
-363.87
-409.83
-450.91
-486.50
-515.74
-537.23
-549.22
-549.96
-538.37
-514.21
-478.67
-433.88
-382.45
-327.02
-269.84
-212.63
-156.66
-102.95
-52.37
-5.90
35.58
71.43
101.35
125.50
144.38
158.69
169.15
176.37
180.75
182.57
182.07
179.51
175.23
169.65
163.18
156.15
148.81
141.30
133.69
126.02
118.33
110.69
103.16
95.80
88.68
81.83
75.25
68.95
62.95
57.25
51.86
46.78
42.03
37.59
33.45
29.61
26.07
22.81
19.83
17.11
14.67
12.48
10.54
8.83
7.34
6.06
4.97
4.06
3.29
2.65
2.11
1.63
1.21
0.85
0.54
0.31
0.14
0.04
-0.03
-0.09
-0.17
-0.26
-0.36
-0.45
-0.49
-0.48
-0.44
-0.40
-0.41
-0.49
-0.65
-0.84
-1.02
-1.10
-1.07
-0.95
-0.84
-0.85
-1.06
-1.49
-2.02
-2.51
-2.80
-2.80
-2.60
-2.39
-2.41
-2.84
-3.67
-4.73
-5.69
-6.25
-6.29
-5.92
-5.49
-5.42
-6.01
-7.26
-8.85
-10.27
-11.12
-11.19
-10.68
-9.97
-9.55
-9.74
-10.71
-12.51
-15.07
-17.94
-20.19
-20.39
-17.13
-9.70
1.39
14.35
26.76
36.52
42.63
45.41
45.92
45.21
43.74
41.34
37.65
32.72
27.28
22.20
18.40
16.22
15.32
14.92
14.05
12.07
8.86
4.78
0.49
-3.33
-6.30
-8.37
-9.82
-11.04
-12.24
-13.38
-14.12
-14.15
-13.31
-11.81
-10.15
-8.94
-8.55
-8.92
-9.67
-10.30
-10.48
-10.18
-9.67
-9.31
-9.34
-9.81
-10.58
-11.37
-11.97
-12.26
-12.18
-11.87
-11.52
-11.33
-11.44
-11.89
-12.57
-13.31
-13.85
-13.75
-12.63
-10.16
-6.26
-1.22
4.33
9.62
13.95
16.98
18.85
19.91
20.55
21.00
21.38
21.71
22.03
22.50
22.71
22.59
22.12
21.34
20.33
19.19
17.96
16.63
15.15
13.42
11.50
9.45
7.33
5.14
2.88
0.49
-2.09
-4.96
-8.20
-11.85
-15.92
-20.35
-24.95
-29.48
-33.70
-37.45
-40.80
-43.97
-47.36
-51.32
-56.01
-61.15
-65.87
-68.90
-68.84
-64.70
-56.28
-44.33
-30.32
-16.02
-2.87
8.32
17.42
24.84
31.09
36.51
41.19
45.04
47.90
49.72
50.58
50.63
50.00
48.78
47.05
44.91
42.57
40.28
38.27
36.62
35.18
33.69
31.80
29.29
26.09
22.28
18.05
13.52
8.76
3.77
-1.43
-6.76
-12.02
-16.98
-21.43
-25.30
-28.68
-31.90
-35.42
-39.73
-45.13
-51.54
-58.32
-64.30
-68.01
-68.05
-63.53
-54.42
-41.64
-26.81
-11.75
1.94
13.29
22.11
28.76
33.87
38.06
41.69
44.91
47.68
49.92
51.55
52.47
52.57
51.74
49.96
47.36
44.32
41.29
38.72
36.84
35.62
34.70
33.59
31.77
28.95
25.10
20.45
15.41
10.32
5.44
0.81
-3.58
-7.75
-11.72
-15.49
-19.10
-22.65
-26.31
-30.24
-34.53
-39.20
-44.22
-49.53
-54.83
-59.57
-62.80
-63.51
-60.82
-54.51
-45.01
-33.43
-21.14
-9.38
1.07
9.91
17.22
23.25
28.23
32.26
35.37
37.52
38.77
39.23
39.13
38.69
38.10
37.42
36.71
36.04
35.47
35.06
34.71
34.15
33.01
30.99
28.03
24.32
20.27
16.29
12.65
9.39
6.37
3.38
0.25
-3.14
-6.81
-10.70
-14.74
-18.82
-22.83
-26.75
-30.59
-34.43
-38.47
-42.87
-47.65
-52.58
-57.01
-60.01
-60.56
-57.89
-51.81
-42.81
-31.91
-20.39
-9.49
-0.08
7.41
12.95
16.85
19.56
21.55
23.12
24.41
25.36
25.92
26.12
26.04
25.81
25.52
25.09
24.40
23.33
21.88
20.17
18.41
16.74
15.23
13.79
12.26
10.40
8.02
5.08
1.64
-2.11
-5.93
-9.60
-13.01
-16.16
-19.03
-21.59
-23.82
-25.81
-27.79
-30.19
-33.48
-37.88
-43.11
-48.37
-52.42
-53.98
-52.07
-46.40
-37.49
-26.51
-14.96
-4.26
4.61
11.26
15.78
18.59
20.21
21.05
21.43
21.59
21.69
21.78
21.86
21.85
21.63
21.10
20.24
19.09
17.79
16.45
15.21
14.19
13.36
12.57
11.52
9.83
7.29
3.87
-0.20
-4.53
-8.75
-12.58
-15.89
-18.71
-21.12
-23.30
-25.52
-28.15
-31.53
-35.79
-40.74
-45.76
-49.88
-52.03
-51.34
-47.37
-40.29
-30.88
-20.31
-9.87
-0.62
6.83
12.43
16.50
19.57
22.04
24.12
25.79
26.95
27.56
27.69
27.50
27.21
26.94
26.72
26.45
25.98
25.21
24.10
22.80
21.43
20.06
18.56
16.67
14.12
10.77
6.72
2.30
-2.09
-6.18
-9.88
-13.30
-16.57
-19.81
-23.06
-26.35
-29.83
-33.74
-38.31
-43.56
-49.13
-54.23
-57.76
-58.66
-56.18
-50.17
-41.18
-30.26
-18.73
-7.84
1.57
9.15
15.05
19.69
23.53
26.92
29.93
32.44
34.25
35.22
35.37
34.86
33.95
32.88
31.86
30.97
30.20
29.46
28.62
27.52
26.01
24.04
21.60
18.77
15.69
12.51
9.28
5.99
2.55
-1.14
-5.11
-9.24
-13.33
-17.15
-20.60
-23.72
-26.75
-30.02
-33.85
-38.42
-43.65
-49.12
-54.05
-57.32
-57.79
-54.57
-47.42
-36.90
-24.27
-11.15
1.00
11.22
19.11
24.81
28.70
31.30
33.05
34.37
35.56
36.73
37.87
38.84
39.47
39.68
39.41
38.63
37.39
35.77
33.95
32.14
30.50
29.01
27.50
25.66
23.25
20.22
16.68
12.80
8.75
4.65
0.56
-3.42
-7.16
-10.55
-13.54
-16.22
-18.76
-21.35
-24.31
-27.92
-32.45
-37.94
-44.06
-50.02
-54.64
-56.67
-55.14
-49.73
-40.84
-29.57
-17.36
-5.65
4.52
12.66
18.81
23.31
26.60
29.01
30.70
31.76
32.25
32.33
32.05
31.47
30.58
29.43
28.13
26.92
25.97
25.34
24.89
24.33
23.41
21.99
20.06
17.66
14.87
11.75
8.38
4.94
1.58
-1.59
-4.58
-7.49
-10.41
-13.38
-16.41
-19.58
-23.01
-26.87
-31.23
-35.90
-40.40
-43.97
-45.77
-45.11
-41.62
-35.41
-27.04
-17.48
-7.80
1.07
8.52
14.38
18.78
21.97
24.25
25.82
26.85
27.47
27.75
27.70
27.31
26.62
25.72
24.79
23.98
23.30
22.64
21.80
20.61
19.04
17.17
15.10
12.95
10.71
8.31
5.65
2.67
-0.60
-4.04
-7.48
-10.75
-13.73
-16.49
-19.14
-21.88
-24.86
-28.15
-31.75
-35.62
-39.69
-43.75
-47.33
-49.63
-49.74
-46.92
-40.98
-32.41
-22.30
-11.98
-2.53
5.37
11.54
16.16
19.53
21.93
23.61
24.74
25.45
25.84
25.98
25.88
25.57
25.09
24.44
23.66
22.76
21.73
20.64
19.51
18.34
17.09
15.67
14.00
12.03
9.77
7.29
4.65
1.90
-0.92
-3.78
-6.64
-9.45
-12.19
-14.84
-17.45
-20.04
-22.69
-25.52
-28.67
-32.30
-36.50
-41.17
-46.01
-50.42
-53.50
-54.30
-52.01
-46.31
-37.60
-26.90
-15.66
-5.26
3.38
10.02
14.88
18.49
21.25
23.38
24.86
25.71
25.99
25.92
25.72
25.51
25.32
25.03
24.55
23.82
22.93
22.00
21.11
20.30
19.41
18.29
16.74
14.72
12.29
9.63
6.87
4.04
1.07
-2.17
-5.73
-9.50
-13.27
-16.80
-19.97
-22.79
-25.42
-28.08
-31.08
-34.69
-39.06
-44.06
-49.20
-53.63
-56.28
-56.23
-52.98
-46.66
-37.87
-27.65
-17.09
-7.17
1.35
8.15
13.31
17.24
20.27
22.52
23.76
23.76
22.57
20.67
18.89
17.96
18.13
19.10
20.20
20.93
21.20
21.30
21.57
22.05
22.35
21.87
20.14
17.10
13.16
8.95
5.00
1.55
-1.40
-4.17
-7.05
-10.21
-13.58
-17.04
-20.46
-23.85
-27.36
-31.20
-35.52
-40.28
-45.30
-50.13
-54.14
-56.53
-56.48
-53.39
-47.15
-38.26
-27.68
-16.57
-5.94
3.62
11.88
18.83
24.52
28.92
32.01
33.88
34.75
34.98
34.97
35.01
35.21
35.53
35.78
35.74
35.25
34.27
32.87
31.17
29.14
26.68
23.64
20.03
16.03
12.01
8.25
4.79
1.42
-2.19
-6.32
-10.98
-15.96
-20.97
-25.80
-30.41
-34.99
-39.84
-45.22
-51.21
-57.54
-63.49
-67.98
-69.72
-67.74
-61.69
-52.01
-39.79
-26.47
-13.30
-1.18
9.45
18.45
25.82
31.66
36.05
39.12
41.03
42.03
42.38
42.32
42.10
41.86
41.68
41.54
41.37
41.08
40.51
39.44
37.61
34.79
30.97
26.34
21.39
16.62
12.44
8.95
5.94
3.02
-0.21
-4.11
-8.85
-14.39
-20.46
-26.69
-32.64
-38.03
-42.85
-47.44
-52.30
-57.87
-64.17
-70.70
-76.34
-79.55
-78.85
-73.26
-62.63
-47.90
-30.79
-13.33
2.76
16.49
27.65
36.52
43.49
48.86
52.76
55.31
56.76
57.50
57.89
58.19
58.45
58.57
58.48
58.05
57.23
55.94
54.15
51.83
49.04
45.90
42.50
38.90
35.05
30.84
26.14
20.82
14.86
8.44
1.92
-4.26
-9.71
-14.34
-18.38
-22.31
-26.74
-32.11
-38.59
-46.02
-53.92
-61.46
-67.52
-70.84
-70.24
-65.05
-55.41
-42.34
-27.47
-12.57
0.89
11.98
20.44
26.47
30.55
33.26
35.13
36.54
37.63
38.43
38.90
39.00
38.64
37.70
36.00
33.43
30.13
26.53
23.29
20.97
19.81
19.51
19.37
18.58
16.54
13.08
8.46
3.21
-2.07
-6.91
-11.12
-14.80
-18.34
-22.26
-27.07
-33.03
-40.02
-47.51
-54.53
-59.79
-61.91
-59.84
-53.11
-42.17
-28.31
-13.34
0.92
13.12
22.62
29.40
33.82
36.39
37.52
37.60
37.01
36.08
35.09
34.17
33.27
32.20
30.77
28.86
26.51
23.90
21.29
18.91
16.83
14.92
12.83
10.13
6.51
1.98
-3.12
-8.29
-13.08
-17.32
-21.23
-25.32
-30.09
-35.86
-42.51
-49.48
-55.80
-60.27
-61.75
-59.44
-53.16
-43.46
-31.45
-18.56
-6.07
5.14
14.64
22.36
28.40
32.85
35.84
37.48
37.99
37.67
36.85
35.82
34.75
33.68
32.52
31.17
29.53
27.59
25.42
23.13
20.73
18.13
15.13
11.55
7.30
2.47
-2.67
-7.81
-12.66
-17.11
-21.25
-25.37
-29.85
-35.04
-41.09
-47.74
-54.32
-59.74
-62.78
-62.35
-57.91
-49.65
-38.44
-25.68
-12.83
-1.08
8.94
17.10
23.69
29.07
33.49
37.07
39.79
41.67
42.82
43.43
43.64
43.53
43.01
41.96
40.33
38.19
35.80
33.40
31.17
29.04
26.77
23.97
20.32
15.73
10.36
4.62
-1.02
-6.19
-10.76
-14.88
-18.91
-23.35
-28.57
-34.81
-41.90
-49.22
-55.75
-60.18
-61.25
-58.20
-51.00
-40.46
-28.04
-15.31
-3.56
6.51
14.75
21.41
26.83
31.27
34.86
37.64
39.66
41.00
41.70
41.84
41.41
40.44
38.97
37.09
34.96
32.74
30.59
28.65
26.99
25.60
24.33
22.89
20.95
18.21
14.53
10.00
4.88
-0.41
-5.45
-9.94
-13.74
-16.97
-19.94
-23.05
-26.73
-31.28
-36.77
-42.98
-49.34
-54.99
-58.88
-59.97
-57.56
-51.45
-42.15
-30.79
-18.83
-7.64
1.82
9.22
14.77
18.96
22.30
25.05
27.29
28.92
29.90
30.28
30.25
29.93
29.41
28.67
27.63
26.28
24.75
23.30
22.13
21.35
20.85
20.37
19.58
18.20
16.06
13.10
9.41
5.18
0.75
-3.55
-7.41
-10.66
-13.41
-15.97
-18.75
-22.14
-26.35
-31.31
-36.72
-42.03
-46.56
-49.50
-50.07
-47.74
-42.35
-34.29
-24.39
-13.82
-3.71
5.07
12.09
17.36
21.15
23.84
25.71
26.91
27.50
27.52
27.04
26.22
25.25
24.32
23.54
22.90
22.30
21.55
20.52
19.16
17.56
15.83
14.07
12.24
10.20
7.76
4.84
1.48
-2.19
-5.97
-9.73
-13.39
-16.92
-20.27
-23.41
-26.40
-29.41
-32.75
-36.73
-41.40
-46.39
-50.86
-53.70
-53.90
-50.92
-44.87
-36.49
-26.88
-17.15
-8.13
-0.22
6.55
12.33
17.25
21.34
24.52
26.74
28.01
28.54
28.57
28.28
27.79
27.06
26.06
24.79
23.41
22.09
21.00
20.18
19.48
18.65
17.40
15.49
12.88
9.72
6.25
2.81
-0.38
-3.26
-5.92
-8.56
-11.37
-14.43
-17.76
-21.29
-24.96
-28.70
-32.45
-36.15
-39.77
-43.35
-46.90
-50.31
-53.20
-54.88
-54.49
-51.31
-45.10
-36.30
-25.93
-15.34
-5.69
2.35
8.70
13.73
17.91
21.59
24.79
27.25
28.67
28.80
27.58
25.22
22.19
19.04
16.35
14.57
13.90
14.26
15.36
16.77
18.06
18.90
19.05
18.40
16.91
14.72
12.03
9.15
6.37
3.85
1.59
-0.60
-2.93
-5.56
-8.48
-11.58
-14.69
-17.74
-20.77
-23.97
-27.58
-31.76
-36.53
-41.63
-46.48
-50.29
-52.10
-51.11
-46.91
-39.70
-30.27
-19.78
-9.46
-0.30
7.20
12.96
17.21
20.30
22.54
24.14
25.20
25.77
25.89
25.64
25.11
24.47
23.82
23.21
22.59
21.88
21.03
20.05
19.05
18.10
17.15
16.03
14.49
12.33
9.49
6.12
2.46
-1.25
-4.87
-8.28
-11.44
-14.30
-16.83
-19.09
-21.35
-23.99
-27.45
-32.03
-37.67
-43.88
-49.77
-54.20
-56.07
-54.57
-49.47
-41.16
-30.61
-19.13
-8.03
1.71
9.58
15.59
20.06
23.48
26.25
28.60
30.55
32.01
32.87
33.10
32.80
32.13
31.28
30.37
29.40
28.36
27.21
25.93
24.53
23.01
21.31
19.37
17.09
14.35
11.11
7.41
3.39
-0.78
-4.88
-8.80
-12.46
-15.91
-19.21
-22.42
-25.66
-29.03
-32.77
-37.05
-41.97
-47.18
-51.96
-55.22
-55.87
-53.16
-46.98
-37.87
-26.84
-15.10
-3.72
6.55
15.26
22.30
27.80
32.01
35.21
37.63
39.37
40.45
40.84
40.54
39.69
38.48
37.16
35.95
34.90
33.98
33.05
31.96
30.58
28.87
26.79
24.40
21.74
18.88
15.84
12.60
9.11
5.34
1.33
-2.77
-6.71
-10.25
-13.28
-15.89
-18.37
-21.15
-24.61
-28.96
-34.13
-39.79
-45.35
-49.96
-52.65
-52.51
-48.99
-42.12
-32.59
-21.62
-10.54
-0.44
8.12
15.08
20.64
25.07
28.48
30.88
32.27
32.75
32.53
31.88
31.05
30.20
29.45
28.76
28.06
27.23
26.20
24.95
23.60
22.26
20.98
19.65
18.04
15.97
13.40
10.44
7.33
4.24
1.23
-1.75
-4.82
-8.02
-11.33
-14.70
-18.11
-21.60
-25.24
-29.10
-33.16
-37.32
-41.30
-44.63
-46.67
-46.72
-44.25
-39.11
-31.68
-22.82
-13.61
-5.09
1.99
7.23
10.52
11.98
11.87
10.69
9.11
7.93
7.79
9.04
11.52
14.68
17.88
20.61
22.59
23.83
24.44
24.47
23.96
22.90
21.35
19.49
17.51
15.49
13.37
10.94
8.00
4.47
0.46
-3.74
-7.73
-11.23
-14.16
-16.71
-19.26
-22.24
-25.92
-30.17
-34.51
-38.13
-40.12
-39.77
-36.72
-31.11
-23.60
-15.10
-6.61
1.03
7.31
12.09
15.49
17.84
19.38
20.30
20.66
20.51
19.99
19.32
18.71
18.30
18.08
17.87
17.45
16.70
15.59
14.23
12.73
11.18
9.57
7.86
6.00
3.92
1.57
-1.06
-3.96
-7.04
-10.16
-13.21
-16.10
-18.85
-21.55
-24.30
-27.18
-30.25
-33.54
-37.02
-40.57
-43.76
-45.91
-46.20
-43.94
-38.89
-31.47
-22.56
-13.29
-4.67
2.69
8.59
13.12
16.51
19.02
20.85
22.18
23.16
23.87
24.37
24.69
24.80
24.68
24.30
23.62
22.63
21.33
19.80
18.18
16.59
15.06
13.58
12.05
10.35
8.33
5.94
3.15
-0.01
-3.40
-6.90
-10.35
-13.69
-16.89
-19.99
-23.10
-26.37
-29.95
-33.99
-38.49
-43.24
-47.74
-51.24
-52.90
-51.99
-48.25
-41.87
-33.57
-24.32
-15.12
-6.70
0.58
6.71
11.87
16.24
19.87
22.70
24.67
25.82
26.36
26.55
26.58
26.50
26.24
25.70
24.89
23.97
23.05
22.20
21.30
20.15
18.59
16.61
14.36
12.02
9.64
7.09
4.17
0.72
-3.23
-7.43
-11.54
-15.26
-18.45
-21.25
-23.95
-26.94
-30.56
-34.96
-40.03
-45.34
-50.15
-53.55
-54.65
-52.74
-47.60
-39.61
-29.65
-18.87
-8.47
0.72
8.28
14.21
18.75
22.18
24.70
26.45
27.51
28.00
28.12
28.08
27.99
27.87
27.64
27.17
26.37
25.25
23.93
22.56
21.28
20.13
18.94
17.42
15.20
12.03
7.89
3.06
-1.99
-6.79
-11.04
-14.67
-17.82
-20.81
-23.94
-27.50
-31.75
-36.80
-42.54
-48.52
-53.83
-57.28
-57.68
-54.21
-46.84
-36.28
-23.88
-11.17
0.53
10.44
18.32
24.31
28.72
31.83
33.88
35.10
35.75
36.11
36.32
36.45
36.39
36.02
35.25
34.09
32.67
31.08
29.37
27.52
25.54
23.40
21.10
18.58
15.68
12.20
7.99
3.07
-2.34
-7.88
-13.19
-17.98
-22.26
-26.24
-30.33
-34.95
-40.43
-46.77
-53.51
-59.77
-64.33
-65.94
-63.74
-57.50
-47.70
-35.51
-22.32
-9.49
2.06
11.88
19.96
26.51
31.79
36.00
39.20
41.43
42.76
43.32
43.30
42.89
42.22
41.33
40.18
38.71
36.93
34.93
32.81
30.74
28.74
26.69
24.36
21.50
17.88
13.47
8.38
2.92
-2.58
-7.81
-12.59
-16.94
-21.03
-25.18
-29.72
-34.96
-41.01
-47.68
-54.44
-60.36
-64.31
-65.16
-62.16
-55.19
-44.80
-32.15
-18.64
-5.55
6.24
16.30
24.56
31.12
36.04
39.37
41.22
41.87
41.78
41.46
41.30
41.43
41.68
41.69
41.11
39.80
37.87
35.65
33.46
31.51
29.79
28.05
25.92
23.06
19.29
14.66
9.47
4.19
-0.72
-5.00
-8.68
-12.08
-15.70
-20.01
-25.26
-31.35
-37.73
-43.51
-47.55
-48.75
-46.38
-40.24
-30.84
-19.26
-6.85
5.11
15.70
24.47
31.36
36.55
40.25
42.61
43.74
43.82
43.07
41.82
40.42
39.16
38.13
37.28
36.39
35.29
33.85
32.11
30.23
28.33
26.39
24.26
21.67
18.40
14.39
9.85
5.15
0.67
-3.37
-6.98
-10.40
-13.99
-18.09
-22.84
-28.24
-34.04
-39.80
-44.86
-48.36
-49.40
-47.24
-41.68
-33.15
-22.73
-11.79
-1.62
6.98
13.78
19.06
23.27
26.80
29.84
32.36
34.25
35.43
35.88
35.63
34.78
33.44
31.74
29.87
28.05
26.43
25.10
24.04
23.07
21.97
20.47
18.41
15.76
12.56
8.93
5.06
1.08
-2.82
-6.47
-9.72
-12.53
-14.98
-17.31
-19.87
-23.00
-26.90
-31.58
-36.74
-41.83
-46.09
-48.69
-48.90
-46.35
-41.11
-33.76
-25.23
-16.48
-8.29
-1.11
4.90
9.79
13.64
16.54
18.61
19.97
20.76
21.08
21.00
20.55
19.80
18.88
18.00
17.31
16.86
16.56
16.25
15.73
14.84
13.50
11.71
9.58
7.30
5.07
3.01
1.11
-0.74
-2.77
-5.09
-7.71
-10.48
-13.18
-15.70
-17.98
-20.09
-22.21
-24.51
-27.11
-30.13
-33.50
-36.98
-40.08
-42.07
-42.24
-40.09
-35.50
-28.94
-21.25
-13.43
-6.36
-0.54
3.91
7.19
9.56
11.21
12.20
12.55
12.34
11.73
10.97
10.30
9.81
9.50
9.25
8.96
8.57
8.10
7.61
7.08
6.49
5.79
4.89
3.74
2.29
0.52
-1.57
-3.95
-6.49
-9.07
-11.50
-13.64
-15.45
-17.06
-18.67
-20.56
-22.95
-25.94
-29.42
-33.04
-36.23
-38.32
-38.60
-36.62
-32.27
-25.89
-18.23
-10.26
-2.90
3.19
7.76
10.90
12.93
14.19
14.99
15.43
15.56
15.39
14.94
14.33
13.71
13.18
12.76
12.37
11.84
11.03
9.91
8.55
7.13
5.79
4.58
3.38
1.96
0.08
-2.43
-5.55
-9.12
-12.88
-16.56
-19.94
-22.94
-25.62
-28.18
-30.93
-34.16
-38.01
-42.29
-46.46
-49.68
-51.03
-49.86
-45.96
-39.60
-31.46
-22.44
-13.39
-4.97
2.37
8.44
13.24
16.86
19.45
21.16
22.12
22.49
22.50
22.33
22.15
21.99
21.79
21.40
20.68
19.62
18.27
16.78
15.20
13.56
11.73
9.62
7.10
4.17
0.86
-2.72
-6.48
-10.29
-14.08
-17.81
-21.54
-25.32
-29.30
-33.62
-38.39
-43.61
-49.09
-54.35
-58.66
-61.12
-60.95
-57.70
-51.44
-42.76
-32.60
-21.98
-11.68
-2.24
6.11
13.36
19.54
24.70
28.83
31.91
33.99
35.18
35.65
35.67
35.44
35.11
34.68
34.05
33.10
31.80
30.24
28.62
27.09
25.66
24.16
22.26
19.67
16.21
11.93
7.05
1.91
-3.18
-8.00
-12.46
-16.62
-20.61
-24.64
-28.98
-33.84
-39.33
-45.33
-51.36
-56.63
-60.16
-61.01
-58.54
-52.58
-43.56
-32.35
-20.15
-8.08
2.95
12.47
20.38
26.84
32.10
36.35
39.70
42.18
43.82
44.69
44.93
44.68
44.12
43.40
42.63
41.90
41.20
40.47
39.56
38.34
36.69
34.57
31.96
28.85
25.20
20.96
16.14
10.86
5.36
-0.03
-5.04
-9.55
-13.71
-17.79
-22.16
-27.09
-32.66
-38.74
-45.03
-50.97
-55.83
-58.65
-58.46
-54.60
-46.93
-36.05
-23.17
-9.77
2.88
13.96
23.23
30.77
36.77
41.31
44.40
46.08
46.57
46.24
45.53
44.78
44.13
43.51
42.74
41.67
40.24
38.50
36.56
34.54
32.51
30.46
28.27
25.78
22.79
19.17
14.92
10.18
5.22
0.30
-4.40
-8.88
-13.31
-17.90
-22.86
-28.36
-34.35
-40.64
-46.73
-51.83
-54.90
-54.88
-51.03
-43.28
-32.29
-19.35
-6.00
6.41
17.02
25.55
32.12
37.05
40.59
42.89
44.00
43.99
43.01
41.41
39.59
37.94
36.67
35.75
34.98
34.06
32.74
30.95
28.76
26.33
23.79
21.18
18.38
15.19
11.40
6.97
2.02
-3.07
-7.89
-12.15
-15.80
-19.13
-22.60
-26.72
-31.77
-37.75
-44.26
-50.61
-55.85
-58.93
-58.89
-55.11
-47.54
-36.85
-24.35
-11.59
0.02
9.62
17.01
22.57
26.89
30.48
33.55
36.07
37.85
38.74
38.72
37.91
36.52
34.83
33.07
31.42
29.99
28.73
27.59
26.45
25.23
23.81
22.05
19.74
16.71
12.91
8.49
3.83
-0.64
-4.60
-8.00
-11.02
-13.97
-17.09
-20.57
-24.49
-28.88
-33.77
-39.11
-44.65
-49.87
-53.99
-56.11
-55.44
-51.59
-44.69
-35.46
-25.00
-14.47
-4.81
3.51
10.43
16.18
21.01
25.09
28.39
30.84
32.38
33.01
32.78
31.81
30.32
28.56
26.85
25.46
24.50
23.89
23.36
22.56
21.28
19.43
17.10
14.44
11.58
8.58
5.51
2.38
-0.72
-3.76
-6.69
-9.58
-12.55
-15.75
-19.26
-23.06
-27.04
-31.05
-35.06
-39.10
-43.26
-47.43
-51.12
-53.50
-53.62
-50.79
-44.94
-36.67
-27.05
-17.22
-8.02
0.14
7.16
13.05
17.75
21.16
23.22
24.04
23.95
23.33
22.56
21.83
21.24
20.80
20.46
20.19
19.92
19.54
18.95
18.04
16.75
15.06
12.97
10.49
7.65
4.49
1.11
-2.35
-5.73
-8.91
-11.87
-14.68
-17.49
-20.49
-23.85
-27.65
-31.88
-36.38
-40.85
-44.78
-47.52
-48.31
-46.54
-41.96
-34.80
-25.83
-16.07
-6.57
1.94
9.10
14.90
19.49
23.02
25.54
27.07
27.59
27.17
25.99
24.35
22.62
21.13
20.07
19.44
19.06
18.67
18.03
17.05
15.76
14.20
12.42
10.34
7.82
4.74
1.10
-2.99
-7.31
-11.58
-15.61
-19.33
-22.84
-26.36
-30.19
-34.56
-39.59
-45.15
-50.92
-56.32
-60.55
-62.78
-62.23
-58.47
-51.58
-42.18
-31.27
-20.02
-9.42
-0.12
7.63
13.93
19.01
23.09
26.35
28.84
30.62
31.75
32.32
32.43
32.13
31.50
30.56
29.42
28.18
26.96
25.77
24.53
22.99
20.92
18.17
14.75
10.82
6.59
2.23
-2.16
-6.57
-10.97
-15.29
-19.46
-23.47
-27.47
-31.73
-36.55
-42.16
-48.49
-55.10
-61.19
-65.76
-67.76
-66.40
-61.30
-52.72
-41.49
-28.80
-15.94
-3.99
6.42
15.06
22.04
27.57
31.86
35.06
37.31
38.80
39.67
40.10
40.12
39.72
38.81
37.37
35.48
33.33
31.19
29.24
27.61
26.24
24.91
23.30
21.07
17.93
13.77
8.73
3.17
-2.41
-7.57
-12.06
-16.01
-19.82
-24.10
-29.32
-35.69
-42.97
-50.49
-57.31
-62.35
-64.58
-63.22
-57.96
-49.04
-37.37
-24.26
-11.12
0.99
11.50
20.39
27.83
33.96
38.72
41.93
43.49
43.55
42.50
40.84
39.01
37.27
35.70
34.32
33.10
32.01
31.03
30.07
29.01
27.65
25.65
22.72
18.63
13.43
7.49
1.41
-4.22
-9.04
-13.06
-16.63
-20.29
-24.51
-29.70
-36.03
-43.35
-51.11
-58.25
-63.39
-65.09
-62.39
-55.11
-43.98
-30.43
-16.06
-2.30
9.94
20.22
28.53
35.01
39.88
43.33
45.53
46.68
46.98
46.61
45.72
44.35
42.49
40.18
37.54
34.80
32.28
30.19
28.61
27.37
26.07
24.23
21.45
17.43
12.15
5.87
-0.91
-7.60
-13.65
-18.75
-22.96
-26.63
-30.37
-34.79
-40.33
-47.03
-54.44
-61.54
-66.95
-69.23
-67.25
-60.58
-49.75
-36.04
-21.22
-6.95
5.56
15.75
23.61
29.45
33.70
36.73
38.89
40.46
41.67
42.66
43.43
43.77
43.44
42.20
40.00
37.01
33.60
30.22
27.24
24.83
22.92
21.18
19.13
16.35
12.57
7.74
2.08
-3.98
-9.97
-15.51
-20.43
-24.88
-29.22
-33.98
-39.52
-45.89
-52.71
-59.11
-63.98
-66.13
-64.66
-59.17
-49.97
-37.97
-24.54
-11.10
1.24
11.87
20.63
27.59
32.89
36.62
38.89
39.89
40.04
39.78
39.43
39.06
38.52
37.53
35.92
33.69
31.00
28.12
25.28
22.62
20.13
17.63
14.84
11.43
7.29
2.45
-2.76
-7.96
-12.83
-17.35
-21.72
-26.31
-31.47
-37.36
-43.81
-50.31
-55.98
-59.76
-60.57
-57.67
-50.95
-41.01
-29.04
-16.50
-4.62
5.83
14.59
21.77
27.58
32.14
35.46
37.46
38.20
37.83
36.63
34.93
33.00
31.07
29.30
27.78
26.50
25.37
24.16
22.61
20.46
17.54
13.83
9.49
4.75
-0.06
-4.64
-8.80
-12.50
-15.93
-19.47
-23.63
-28.81
-35.15
-42.33
-49.55
-55.68
-59.36
-59.53
-55.58
-47.66
-36.64
-23.91
-10.99
0.86
10.89
18.87
24.97
29.55
32.91
35.28
36.76
37.47
37.50
36.99
36.08
34.84
33.34
31.61
29.71
27.73
25.74
23.75
21.70
19.43
16.71
13.35
9.26
4.48
-0.78
-6.26
-11.69
-16.87
-21.73
-26.37
-31.05
-36.12
-41.78
-48.01
-54.30
-59.72
-63.06
-63.17
-59.38
-51.69
-40.89
-28.25
-15.19
-2.88
8.04
17.35
25.15
31.56
36.65
40.42
42.90
44.23
44.64
44.47
43.94
43.19
42.21
40.88
39.07
36.71
33.83
30.66
27.47
24.51
21.89
19.45
16.86
13.69
9.69
4.87
-0.48
-5.91
-11.01
-15.58
-19.69
-23.63
-27.85
-32.72
-38.42
-44.83
-51.51
-57.66
-62.31
-64.42
-63.13
-58.03
-49.34
-37.88
-24.94
-11.89
0.15
10.57
19.26
26.41
32.28
36.92
40.28
42.28
42.97
42.63
41.74
40.69
39.71
38.79
37.75
36.41
34.69
32.66
30.44
28.15
25.83
23.46
20.98
18.32
15.36
11.96
8.03
3.55
-1.32
-6.34
-11.23
-15.80
-20.10
-24.32
-28.74
-33.61
-39.04
-44.93
-50.95
-56.42
-60.44
-61.98
-60.17
-54.67
-45.80
-34.54
-22.17
-9.95
1.23
10.87
18.84
25.15
29.88
33.15
35.15
36.16
36.45
36.25
35.67
34.76
33.55
32.10
30.48
28.76
26.92
24.96
22.85
20.64
18.39
16.08
13.63
10.85
7.59
3.79
-0.41
-4.74
-8.92
-12.77
-16.33
-19.78
-23.45
-27.62
-32.48
-37.99
-43.84
-49.42
-53.87
-56.23
-55.66
-51.69
-44.39
-34.37
-22.68
-10.47
1.20
11.56
20.21
26.98
31.89
35.09
36.80
37.32
36.99
36.14
35.02
33.74
32.30
30.65
28.77
26.74
24.73
22.92
21.38
20.02
18.63
16.91
14.60
11.62
7.97
3.78
-0.74
-5.37
-9.89
-14.14
-18.03
-21.62
-25.14
-28.97
-33.50
-38.90
-45.02
-51.18
-56.32
-59.17
-58.67
-54.30
-46.28
-35.54
-23.41
-11.25
-0.08
9.58
17.64
24.23
29.50
33.51
36.31
37.97
38.70
38.74
38.31
37.53
36.40
34.89
33.03
30.91
28.70
26.57
24.62
22.85
21.14
19.34
17.26
14.72
11.64
8.02
3.98
-0.30
-4.63
-8.85
-12.85
-16.62
-20.23
-23.79
-27.48
-31.50
-36.01
-41.07
-46.49
-51.82
-56.30
-59.00
-59.00
-55.73
-49.08
-39.60
-28.28
-16.40
-5.11
4.81
13.02
19.57
24.73
28.80
31.93
34.17
35.48
35.85
35.38
34.29
32.85
31.29
29.75
28.24
26.69
25.06
23.34
21.63
19.99
18.41
16.75
14.78
12.24
8.99
5.04
0.58
-4.08
-8.56
-12.57
-15.99
-18.92
-21.65
-24.56
-27.99
-32.08
-36.76
-41.82
-46.88
-51.49
-55.03
-56.79
-56.03
-52.28
-45.49
-36.24
-25.55
-14.64
-4.54
4.13
11.25
16.97
21.55
25.13
27.71
29.24
29.74
29.36
28.36
27.06
25.71
24.44
23.26
22.11
20.94
19.78
18.62
17.45
16.21
14.78
13.02
10.86
8.28
5.34
2.12
-1.27
-4.73
-8.20
-11.61
-14.94
-18.23
-21.56
-25.06
-28.86
-33.05
-37.65
-42.60
-47.64
-52.34
-56.01
-57.78
-56.86
-52.76
-45.53
-35.79
-24.63
-13.23
-2.59
6.60
14.06
19.71
23.61
25.92
26.87
26.84
26.24
25.47
24.72
24.09
23.49
22.79
21.88
20.67
19.13
17.27
15.22
13.16
11.21
9.43
7.66
5.61
3.01
-0.27
-4.09
-8.11
-11.95
-15.34
-18.34
-21.20
-24.34
-28.14
-32.80
-38.24
-44.02
-49.44
-53.57
-55.49
-54.44
-50.05
-42.50
-32.49
-21.11
-9.56
1.08
10.09
17.15
22.24
25.59
27.56
28.50
28.74
28.56
28.14
27.54
26.78
25.77
24.48
22.85
20.97
18.97
17.02
15.19
13.50
11.79
9.78
7.24
4.02
0.13
-4.22
-8.74
-13.18
-17.44
-21.63
-25.99
-30.86
-36.48
-42.94
-50.02
-57.15
-63.45
-67.85
-69.35
-67.32
-61.62
-52.70
-41.45
-29.02
-16.51
-4.83
5.42
13.95
20.70
25.83
29.54
32.12
33.79
34.78
35.23
35.28
34.95
34.16
32.82
30.86
28.37
25.66
23.13
21.08
19.50
18.03
16.11
13.24
9.19
4.14
-1.44
-7.00
-12.17
-16.85
-21.21
-25.68
-30.78
-36.92
-44.23
-52.35
-60.29
-66.61
-69.72
-68.39
-62.19
-51.65
-38.12
-23.34
-8.94
3.98
14.94
24.01
31.52
37.79
42.98
47.09
50.09
52.06
53.21
53.74
53.73
53.07
51.58
49.16
45.99
42.52
39.30
36.66
34.57
32.64
30.33
27.11
22.78
17.40
11.29
4.86
-1.51
-7.56
-13.25
-18.71
-24.26
-30.26
-37.01
-44.50
-52.35
-59.74
-65.45
-68.14
-66.67
-60.48
-49.86
-35.93
-20.38
-4.96
9.02
20.99
31.00
39.46
46.74
52.91
57.76
61.00
62.54
62.61
61.64
60.15
58.45
56.59
54.46
51.96
49.14
46.23
43.47
41.02
38.74
36.32
33.37
29.58
24.85
19.30
13.30
7.25
1.57
-3.52
-8.07
-12.44
-17.11
-22.58
-29.10
-36.54
-44.37
-51.71
-57.48
-60.58
-60.09
-55.53
-47.09
-35.60
-22.40
-8.93
3.61
14.52
23.62
31.06
37.01
41.54
44.61
46.20
46.44
45.66
44.28
42.71
41.17
39.72
38.21
36.56
34.69
32.71
30.76
28.96
27.31
25.60
23.48
20.63
16.91
12.43
7.58
2.80
-1.58
-5.43
-8.93
-12.41
-16.27
-20.81
-26.19
-32.34
-38.91
-45.25
-50.46
-53.50
-53.51
-50.03
-43.24
-33.94
-23.28
-12.49
-2.55
6.01
13.05
18.79
23.49
27.39
30.56
32.95
34.47
35.10
34.94
34.19
33.04
31.65
30.09
28.42
26.75
25.19
23.84
22.67
21.53
20.14
18.25
15.69
12.46
8.68
4.55
0.34
-3.70
-7.40
-10.65
-13.53
-16.27
-19.19
-22.60
-26.69
-31.46
-36.70
-42.03
-46.90
-50.69
-52.74
-52.48
-49.58
-44.05
-36.28
-26.95
-16.99
-7.29
1.40
8.61
14.22
18.43
21.59
24.07
26.15
27.93
29.38
30.43
30.99
31.02
30.47
29.36
27.74
25.78
23.70
21.77
20.22
19.05
18.09
17.02
15.52
13.43
10.79
7.80
4.69
1.62
-1.36
-4.30
-7.24
-10.20
-13.14
-16.04
-18.94
-21.87
-24.95
-28.24
-31.77
-35.57
-39.56
-43.63
-47.48
-50.65
-52.57
-52.63
-50.40
-45.80
-39.15
-31.10
-22.48
-14.04
-6.33
0.45
6.32
11.41
15.77
19.40
22.16
24.00
24.93
25.12
24.86
24.46
24.11
23.83
23.47
22.84
21.81
20.44
18.95
17.56
16.40
15.38
14.23
12.67
10.58
8.01
5.27
2.64
0.28
-1.85
-3.93
-6.20
-8.76
-11.60
-14.54
-17.34
-19.85
-22.02
-23.99
-26.04
-28.45
-31.44
-35.05
-39.17
-43.47
-47.41
-50.27
-51.31
-49.92
-45.87
-39.40
-31.24
-22.39
-13.82
-6.20
0.13
5.21
9.26
12.54
15.27
17.63
19.69
21.44
22.79
23.64
23.92
23.66
23.02
22.19
21.31
20.42
19.52
18.58
17.62
16.70
15.84
14.97
13.89
12.39
10.34
7.80
4.98
2.13
-0.53
-3.01
-5.39
-7.83
-10.37
-12.98
-15.52
-17.91
-20.21
-22.61
-25.37
-28.71
-32.68
-37.07
-41.37
-44.84
-46.66
-46.11
-42.91
-37.23
-29.77
-21.49
-13.34
-5.99
0.32
5.65
10.22
14.20
17.65
20.51
22.68
24.10
24.77
24.74
24.16
23.25
22.24
21.37
20.77
20.43
20.27
20.16
19.96
19.56
18.81
17.58
15.77
13.38
10.53
7.50
4.53
1.77
-0.80
-3.37
-6.16
-9.30
-12.79
-16.50
-20.25
-23.82
-27.07
-30.00
-32.74
-35.57
-38.84
-42.82
-47.53
-52.63
-57.48
-61.15
-62.75
-61.63
-57.53
-50.74
-42.04
-32.42
-22.93
-14.31
-6.89
-0.63
4.75
9.51
13.81
17.68
21.09
24.05
26.59
28.72
30.37
31.42
31.73
31.32
30.41
29.34
28.42
27.83
27.51
27.20
26.56
25.30
23.34
20.72
17.64
14.31
10.88
7.42
3.94
0.47
-3.00
-6.48
-10.02
-13.67
-17.47
-21.37
-25.26
-29.09
-32.94
-37.09
-41.90
-47.57
-53.97
-60.51
-66.20
-69.86
-70.49
-67.51
-60.97
-51.49
-40.17
-28.25
-16.84
-6.64
2.08
9.41
15.62
21.00
25.73
29.86
33.40
36.29
38.49
39.98
40.74
40.82
40.36
39.56
38.65
37.81
37.14
36.59
35.97
35.06
33.63
31.54
28.78
25.45
21.71
17.74
13.68
9.58
5.46
1.31
-2.88
-7.09
-11.27
-15.38
-19.42
-23.46
-27.68
-32.36
-37.74
-43.96
-50.87
-57.93
-64.18
-68.41
-69.40
-66.33
-59.05
-48.20
-35.07
-21.21
-8.00
3.68
13.50
21.60
28.22
33.57
37.69
40.58
42.34
43.22
43.59
43.76
43.82
43.68
43.15
42.10
40.63
38.96
37.32
35.75
34.14
32.28
30.04
27.39
24.38
21.09
17.46
13.37
8.79
3.78
-1.45
-6.66
-11.66
-16.42
-21.02
-25.66
-30.61
-36.14
-42.48
-49.52
-56.71
-62.99
-66.94
-67.20
-63.00
-54.36
-42.18
-27.94
-13.22
0.68
12.94
23.24
31.61
38.21
43.28
46.95
49.37
50.74
51.31
51.31
50.97
50.37
49.49
48.22
46.50
44.37
41.96
39.42
36.84
34.19
31.37
28.27
24.84
21.05
16.94
12.53
7.80
2.77
-2.50
-7.88
-13.21
-18.35
-23.24
-28.02
-32.96
-38.42
-44.71
-51.95
-59.84
-67.63
-74.13
-77.92
-77.76
-72.89
-63.37
-50.06
-34.43
-18.14
-2.70
10.83
22.00
30.80
37.54
42.70
46.75
50.11
53.00
55.46
57.27
58.09
57.65
55.93
53.23
50.09
47.08
44.58
42.60
40.89
39.05
36.75
33.86
30.42
26.56
22.39
17.89
13.03
7.72
2.04
-3.91
-9.84
-15.52
-20.79
-25.70
-30.44
-35.35
-40.81
-47.05
-54.16
-61.98
-70.01
-77.34
-82.71
-84.71
-82.16
-74.56
-62.34
-46.84
-29.87
-13.26
1.63
14.18
24.31
32.38
38.83
44.06
48.39
51.97
54.81
56.80
57.79
57.68
56.58
54.76
52.65
50.63
49.03
47.95
47.28
46.71
45.79
44.04
41.07
36.76
31.22
24.83
18.01
11.10
4.36
-2.11
-8.24
-14.02
-19.48
-24.70
-29.80
-34.96
-40.32
-45.99
-52.14
-58.87
-66.11
-73.50
-80.14
-84.72
-85.78
-82.18
-73.58
-60.66
-44.87
-28.05
-11.89
2.53
14.75
24.81
32.93
39.29
43.98
47.02
48.57
48.86
48.25
47.11
45.76
44.37
43.04
41.74
40.38
38.84
37.03
34.92
32.51
29.85
26.91
23.65
19.94
15.67
10.83
5.53
-0.02
-5.57
-10.94
-16.08
-21.05
-25.97
-31.02
-36.39
-42.26
-48.79
-55.98
-63.54
-70.80
-76.60
-79.60
-78.53
-72.64
-62.03
-47.67
-31.20
-14.43
1.08
14.38
25.15
33.60
40.11
45.00
48.40
50.38
50.99
50.49
49.25
47.66
45.96
44.20
42.26
40.01
37.46
34.71
31.96
29.33
26.76
24.04
20.81
16.80
11.83
5.92
-0.70
-7.65
-14.44
-20.68
-26.17
-31.01
-35.61
-40.55
-46.36
-53.36
-61.46
-70.06
-78.02
-83.75
-85.55
-82.06
-72.81
-58.48
-40.82
-22.13
-4.53
10.60
22.84
32.48
40.08
46.07
50.68
54.01
56.13
57.24
57.51
57.12
56.08
54.42
52.19
49.50
46.50
43.38
40.24
37.17
34.21
31.31
28.37
25.07
21.08
16.10
10.03
3.08
-4.22
-11.29
-17.68
-23.22
-28.16
-32.99
-38.31
-44.62
-52.17
-60.86
-70.24
-79.40
-87.02
-91.53
-91.46
-85.81
-74.52
-58.55
-39.73
-20.27
-2.13
13.43
26.01
35.94
43.89
50.44
55.87
60.17
63.20
64.89
65.27
64.56
62.97
60.71
57.91
54.70
51.28
47.87
44.70
41.95
39.58
37.39
35.02
32.08
28.24
23.37
17.55
11.08
4.27
-2.58
-9.30
-15.83
-22.18
-28.31
-34.15
-39.63
-44.78
-49.82
-55.20
-61.41
-68.82
-77.33
-86.20
-93.97
-98.75
-98.70
-92.65
-80.55
-63.59
-43.87
-23.72
-5.11
10.87
24.01
34.71
43.51
50.79
56.68
61.12
64.14
65.88
66.61
66.54
65.69
63.95
61.25
57.74
53.86
50.29
47.58
45.95
45.10
44.34
42.87
40.07
35.73
30.09
23.68
17.10
10.84
5.08
-0.31
-5.67
-11.33
-17.47
-23.95
-30.42
-36.48
-41.96
-46.96
-51.88
-57.31
-63.73
-71.33
-79.88
-88.64
-96.40
-101.57
-102.50
-98.00
-87.69
-72.27
-53.39
-33.24
-13.87
3.28
17.59
29.13
38.39
45.80
51.70
56.16
59.20
60.86
61.24
60.58
59.13
57.13
54.80
52.36
49.98
47.81
45.98
44.51
43.23
41.84
39.89
37.00
32.97
27.89
22.18
16.34
10.82
5.74
0.97
-3.91
-9.23
-15.12
-21.38
-27.57
-33.26
-38.27
-42.83
-47.50
-52.93
-59.59
-67.47
-75.95
-83.80
-89.43
-91.22
-87.91
-79.02
-65.07
-47.51
-28.36
-9.69
6.92
20.62
31.30
39.33
45.19
49.34
52.08
53.65
54.29
54.22
53.63
52.64
51.31
49.74
48.03
46.27
44.51
42.70
40.74
38.57
36.13
33.44
30.48
27.21
23.50
19.21
14.23
8.57
2.33
-4.29
-11.04
-17.65
-23.92
-29.77
-35.26
-40.58
-46.06
-52.06
-58.86
-66.56
-74.87
-82.96
-89.52
-92.89
-91.55
-84.61
-72.23
-55.63
-36.83
-18.02
-1.03
13.10
24.14
32.47
38.74
43.56
47.38
50.43
52.79
54.44
55.37
55.51
54.80
53.24
50.94
48.22
45.56
43.45
42.18
41.69
41.60
41.21
39.84
37.00
32.52
26.60
19.67
12.30
4.98
-1.95
-8.35
-14.23
-19.70
-24.81
-29.56
-33.95
-38.10
-42.29
-46.92
-52.41
-58.98
-66.48
-74.32
-81.44
-86.53
-88.21
-85.44
-77.79
-65.65
-50.21
-33.16
-16.20
-0.66
12.78
23.97
33.13
40.57
46.48
50.99
54.17
56.15
57.12
57.27
56.75
55.61
53.88
51.63
49.04
46.38
43.89
41.72
39.76
37.64
34.88
31.09
26.17
20.42
14.42
8.72
3.61
-1.03
-5.63
-10.68
-16.42
-22.71
-29.12
-35.11
-40.34
-44.82
-48.87
-52.98
-57.70
-63.39
-70.15
-77.67
-85.11
-91.21
-94.38
-93.19
-86.80
-75.32
-59.86
-42.21
-24.35
-7.89
6.27
17.85
27.09
34.35
39.98
44.19
47.18
49.09
50.14
50.55
50.50
50.17
49.64
48.92
47.93
46.47
44.34
41.48
38.02
34.26
30.59
27.23
24.15
21.05
17.57
13.42
8.53
2.99
-3.03
-9.39
-15.97
-22.62
-29.10
-35.16
-40.73
-45.93
-51.15
-56.93
-63.56
-70.97
-78.43
-84.58
-87.71
-86.20
-79.09
-66.43
-49.42
-30.06
-10.57
7.25
22.30
34.18
42.88
48.61
51.61
52.20
50.94
48.51
45.64
42.93
40.67
38.87
37.31
35.64
33.60
31.04
28.02
24.77
21.61
18.72
16.07
13.33
10.05
5.83
0.54
-5.67
-12.40
-19.22
-25.74
-31.71
-37.00
-41.68
-46.00
-50.35
-55.16
-60.60
-66.28
-71.22
-73.93
-72.94
-67.26
-56.84
-42.58
-26.10
-9.20
6.60
20.38
31.82
41.03
48.28
53.77
57.61
59.80
60.44
59.77
58.21
56.24
54.23
52.32
50.37
48.07
45.20
41.74
37.92
34.11
30.58
27.38
24.24
20.71
16.34
10.86
4.33
-2.87
-10.22
-17.19
-23.44
-28.89
-33.82
-38.70
-44.11
-50.56
-58.26
-66.90
-75.55
-82.73
-86.66
-85.78
-79.28
-67.35
-51.28
-33.01
-14.57
2.45
17.18
29.46
39.58
47.91
54.61
59.70
63.08
64.77
65.00
64.17
62.77
61.11
59.34
57.42
55.26
52.79
50.06
47.13
44.05
40.81
37.29
33.40
29.09
24.33
19.13
13.54
7.59
1.33
-5.13
-11.70
-18.22
-24.52
-30.48
-36.08
-41.45
-46.94
-52.98
-59.94
-67.84
-76.08
-83.49
-88.42
-89.21
-84.75
-74.78
-60.11
-42.35
-23.53
-5.56
10.21
23.20
33.54
41.77
48.52
54.20
58.92
62.56
64.94
65.94
65.61
64.11
61.72
58.75
55.57
52.50
49.78
47.46
45.43
43.42
41.11
38.22
34.62
30.26
25.26
19.77
13.95
7.97
1.96
-4.02
-9.94
-15.79
-21.54
-27.12
-32.45
-37.53
-42.43
-47.42
-52.86
-59.08
-66.14
-73.64
-80.63
-85.69
-87.32
-84.35
-76.36
-63.87
-48.19
-31.09
-14.29
0.93
13.87
24.42
32.84
39.53
44.79
48.81
51.62
53.26
53.78
53.31
52.07
50.30
48.22
46.07
44.02
42.22
40.71
39.41
38.08
36.38
34.01
30.80
26.82
22.31
17.57
12.83
8.17
3.47
-1.35
-6.35
-11.47
-16.56
-21.46
-26.13
-30.66
-35.27
-40.27
-45.98
-52.55
-59.83
-67.25
-73.74
-77.90
-78.35
-74.18
-65.25
-52.34
-36.98
-20.94
-5.82
7.32
18.11
26.66
33.38
38.64
42.72
45.73
47.70
48.64
48.60
47.65
45.96
43.76
41.36
39.09
37.24
35.94
35.10
34.41
33.47
31.88
29.38
25.87
21.51
16.60
11.54
6.71
2.30
-1.73
-5.67
-9.91
-14.72
-20.10
-25.80
-31.38
-36.47
-40.94
-44.93
-48.88
-53.28
-58.55
-64.72
-71.35
-77.41
-81.46
-82.06
-78.18
-69.62
-57.11
-42.10
-26.31
-11.22
2.22
13.58
22.82
30.02
35.34
39.01
41.38
42.86
43.88
44.68
45.28
45.54
45.29
44.43
43.05
41.38
39.67
38.13
36.83
35.67
34.40
32.71
30.31
27.05
23.01
18.46
13.77
9.23
4.94
0.80
-3.47
-8.07
-13.11
-18.43
-23.72
-28.61
-32.83
-36.41
-39.70
-43.25
-47.66
-53.28
-60.10
-67.61
-74.87
-80.68
-83.70
-82.81
-77.37
-67.51
-54.15
-38.82
-23.24
-8.90
3.35
13.29
21.17
27.45
32.56
36.77
40.24
42.99
45.03
46.33
46.80
46.44
45.29
43.50
41.31
38.99
36.86
35.15
33.99
33.32
32.87
32.20
30.82
28.37
24.71
20.05
14.87
9.69
4.96
0.91
-2.51
-5.60
-8.77
-12.35
-16.53
-21.24
-26.25
-31.26
-36.02
-40.52
-44.94
-49.62
-54.93
-61.01
-67.67
-74.20
-79.49
-82.24
-81.31
-76.05
-66.57
-53.71
-38.85
-23.55
-9.13
3.46
13.82
21.96
28.12
32.62
35.78
37.88
39.14
39.71
39.73
39.30
38.52
37.48
36.32
35.23
34.35
33.79
33.47
33.17
32.55
31.25
29.09
26.11
22.56
18.76
14.98
11.32
7.73
4.04
0.06
-4.37
-9.28
-14.60
-20.08
-25.40
-30.28
-34.63
-38.61
-42.71
-47.50
-53.41
-60.38
-67.68
-73.94
-77.50
-76.81
-71.03
-60.40
-46.14
-30.16
-14.44
-0.45
11.11
20.23
27.28
32.70
36.70
39.40
40.88
41.31
41.00
40.27
39.41
38.59
37.87
37.20
36.48
35.59
34.39
32.81
30.80
28.38
25.50
22.15
18.29
13.94
9.20
4.23
-0.79
-5.72
-10.56
-15.32
-20.02
-24.69
-29.33
-33.98
-38.73
-43.79
-49.38
-55.71
-62.76
-70.19
-77.21
-82.60
-84.97
-83.08
-76.32
-64.92
-50.01
-33.27
-16.48
-1.09
12.02
22.64
30.98
37.52
42.77
47.10
50.67
53.45
55.30
56.10
55.83
54.62
52.79
50.67
48.59
46.80
45.36
44.15
42.87
41.11
38.47
34.72
29.93
24.40
18.58
12.83
7.30
1.89
-3.59
-9.33
-15.32
-21.44
-27.43
-33.15
-38.59
-44.01
-49.73
-56.09
-63.20
-70.83
-78.36
-84.83
-89.06
-89.92
-86.53
-78.57
-66.42
-51.13
-34.25
-17.42
-2.00
11.26
22.23
31.20
38.58
44.65
49.44
52.86
54.90
55.71
55.58
54.92
54.04
53.18
52.37
51.59
50.76
49.75
48.44
46.73
44.48
41.56
37.88
33.43
28.36
22.95
17.55
12.39
7.46
2.48
-2.92
-8.97
-15.61
-22.48
-29.11
-35.21
-40.77
-46.12
-51.76
-58.17
-65.51
-73.43
-81.05
-86.97
-89.61
-87.64
-80.42
-68.29
-52.49
-34.85
-17.21
-0.98
13.03
24.62
33.90
41.22
46.87
51.13
54.20
56.19
57.16
57.21
56.51
55.29
53.87
52.47
51.16
49.82
48.22
46.14
43.53
40.46
37.14
33.72
30.23
26.55
22.48
17.79
12.36
6.20
-0.52
-7.55
-14.57
-21.26
-27.41
-32.96
-38.08
-43.23
-48.98
-55.75
-63.45
-71.28
-77.72
-80.96
-79.43
-72.39
-60.23
-44.29
-26.48
-8.70
7.61
21.62
33.04
41.87
48.28
52.43
54.55
55.05
54.42
53.28
52.14
51.30
50.76
50.25
49.38
47.86
45.59
42.69
39.44
36.13
32.89
29.74
26.47
22.76
18.27
12.78
6.32
-0.82
-8.15
-15.23
-21.75
-27.69
-33.27
-38.86
-44.82
-51.41
-58.73
-66.55
-74.19
-80.51
-84.07
-83.46
-77.88
-67.41
-53.05
-36.39
-19.14
-2.66
12.19
25.01
35.66
44.20
50.73
55.40
58.45
60.12
60.61
60.16
59.03
57.48
55.74
53.95
52.15
50.25
48.14
45.73
42.97
39.85
36.34
32.46
28.20
23.58
18.58
13.18
7.33
1.01
-5.65
-12.45
-19.13
-25.46
-31.37
-36.92
-42.34
-47.95
-54.11
-61.03
-68.56
-76.02
-82.13
-85.26
-83.89
-77.19
-65.40
-49.78
-32.24
-14.76
1.18
14.81
26.05
35.15
42.48
48.32
52.80
56.01
58.05
59.14
59.47
59.23
58.49
57.25
55.47
53.19
50.58
47.86
45.20
42.67
40.11
37.26
33.88
29.91
25.44
20.71
15.89
11.06
6.10
0.81
-4.97
-11.25
-17.86
-24.51
-30.81
-36.53
-41.61
-46.28
-50.98
-56.28
-62.57
-69.76
-77.13
-83.31
-86.59
-85.42
-78.96
-67.49
-52.32
-35.44
-18.85
-4.00
8.50
18.70
27.02
33.88
39.49
43.96
47.38
49.88
51.57
52.46
52.39
51.24
49.02
46.04
42.81
39.87
37.50
35.66
34.05
32.26
30.01
27.22
23.91
20.16
15.96
11.26
5.98
0.14
-6.10
-12.39
-18.29
-23.45
-27.75
-31.41
-34.95
-38.97
-43.98
-50.32
-57.98
-66.62
-75.45
-83.17
-88.11
-88.48
-82.96
-71.21
-54.15
-33.82
-12.76
6.71
23.12
35.99
45.59
52.48
57.16
59.85
60.70
59.89
57.81
55.01
52.03
49.25
46.77
44.47
42.14
39.66
36.98
34.18
31.28
28.28
25.04
21.36
17.09
12.14
6.56
0.50
-5.82
-12.07
-17.91
-23.11
-27.65
-31.77
-35.95
-40.70
-46.40
-53.19
-60.90
-69.12
-77.12
-83.90
-88.19
-88.73
-84.65
-75.80
-62.99
-47.74
-31.84
-16.82
-3.58
7.65
17.12
25.24
32.32
38.47
43.58
47.43
49.75
50.46
49.68
47.81
45.39
43.02
41.09
39.74
38.83
38.01
36.90
35.21
32.75
29.51
25.59
21.15
16.30
11.12
5.61
-0.16
-6.04
-11.83
-17.31
-22.40
-27.21
-31.98
-37.03
-42.61
-48.93
-56.04
-63.86
-72.06
-79.96
-86.51
-90.45
-90.57
-86.09
-76.99
-64.01
-48.55
-32.22
-16.49
-2.36
9.79
20.09
28.88
36.50
43.12
48.64
52.90
55.74
57.17
57.30
56.33
54.53
52.19
49.65
47.24
45.24
43.71
42.49
41.20
39.37
36.67
32.93
28.30
23.02
17.45
11.84
6.28
0.68
-5.16
-11.51
-18.52
-26.18
-34.24
-42.23
-49.63
-55.97
-61.05
-64.98
-68.10
-70.77
-73.03
-74.40
-73.90
-70.34
-62.89
-51.53
-37.13
-21.24
-5.52
8.80
21.16
31.57
40.29
47.50
53.14
57.05
59.11
59.43
58.38
56.40
53.97
51.47
49.14
47.08
45.29
43.65
41.98
40.05
37.69
34.78
31.29
27.25
22.73
17.78
12.42
6.62
0.39
-6.18
-12.89
-19.43
-25.49
-30.91
-35.80
-40.55
-45.68
-51.66
-58.64
-66.34
-74.01
-80.48
-84.33
-84.25
-79.29
-69.30
-54.95
-37.74
-19.49
-1.96
13.58
26.49
36.64
44.23
49.53
52.86
54.52
54.86
54.22
52.92
51.23
49.36
47.45
45.59
43.79
41.94
39.86
37.38
34.45
31.11
27.49
23.68
19.69
15.41
10.75
5.65
0.20
-5.40
-10.91
-16.18
-21.18
-26.06
-31.03
-36.43
-42.56
-49.69
-57.89
-66.94
-76.20
-84.45
-90.11
-91.50
-87.42
-77.55
-62.70
-44.59
-25.35
-6.87
9.58
23.55
35.12
44.60
52.31
58.43
63.06
66.25
68.07
68.59
67.90
66.15
63.59
60.54
57.31
54.14
51.17
48.40
45.77
43.19
40.51
37.51
33.90
29.47
24.14
18.09
11.71
5.35
-0.76
-6.66
-12.53
-18.55
-24.72
-30.83
-36.63
-41.98
-47.06
-52.37
-58.50
-65.88
-74.48
-83.62
-91.99
-97.86
-99.50
-95.65
-85.96
-71.19
-52.97
-33.38
-14.32
2.92
17.82
30.41
40.97
49.75
56.81
62.07
65.57
67.44
68.00
67.55
66.35
64.50
62.10
59.23
56.06
52.83
49.69
46.75
43.95
41.10
38.03
34.57
30.67
26.32
21.58
16.46
11.00
5.13
-1.11
-7.68
-14.38
-20.94
-27.07
-32.62
-37.67
-42.55
-47.79
-53.90
-61.18
-69.39
-77.67
-84.56
-88.31
-87.34
-80.74
-68.66
-52.30
-33.66
-14.90
2.18
16.54
27.90
36.57
43.03
47.71
50.83
52.49
52.81
52.02
50.44
48.46
46.33
44.20
42.06
39.89
37.76
35.79
34.06
32.53
30.94
28.90
26.01
22.04
16.96
10.98
4.44
-2.29
-8.83
-14.82
-20.06
-24.50
-28.40
-32.26
-36.75
-42.47
-49.71
-58.23
-67.20
-75.26
-80.74
-82.03
-78.06
-68.66
-54.70
-37.88
-20.23
-3.59
10.86
22.63
31.83
38.82
43.97
47.63
50.04
51.42
51.90
51.56
50.43
48.55
46.10
43.34
40.60
38.08
35.83
33.76
31.74
29.66
27.43
24.93
21.96
18.30
13.78
8.40
2.38
-3.89
-10.04
-15.76
-20.97
-25.76
-30.39
-35.15
-40.31
-46.07
-52.55
-59.74
-67.35
-74.75
-80.91
-84.44
-83.97
-78.61
-68.32
-54.07
-37.64
-21.03
-5.86
7.00
17.45
25.91
32.90
38.80
43.74
47.65
50.42
51.97
52.33
51.58
49.89
47.49
44.66
41.74
39.02
36.77
35.10
33.93
32.93
31.66
29.64
26.56
22.41
17.44
12.06
6.61
1.25
-3.99
-9.15
-14.28
-19.33
-24.21
-28.90
-33.46
-38.05
-42.90
-48.31
-54.48
-61.43
-68.77
-75.60
-80.61
-82.35
-79.76
-72.50
-61.21
-47.24
-32.21
-17.61
-4.40
6.99
16.57
24.53
31.06
36.26
40.15
42.72
44.02
44.17
43.39
41.92
40.06
38.04
36.12
34.49
33.24
32.34
31.63
30.79
29.47
27.43
24.55
20.88
16.62
12.01
7.30
2.68
-1.82
-6.26
-10.73
-15.34
-20.09
-24.92
-29.79
-34.72
-39.88
-45.54
-51.86
-58.77
-65.75
-71.91
-76.09
-77.14
-74.22
-67.07
-56.10
-42.40
-27.45
-12.77
0.46
11.63
20.68
27.86
33.48
37.73
40.65
42.24
42.61
42.01
40.78
39.26
37.68
36.17
34.78
33.53
32.42
31.36
30.19
28.65
26.57
23.81
20.43
16.55
12.34
7.90
3.22
-1.77
-7.13
-12.81
-18.65
-24.38
-29.72
-34.56
-39.02
-43.44
-48.27
-53.95
-60.68
-68.32
-76.20
-83.21
-87.91
-88.82
-84.90
-75.88
-62.44
-46.12
-28.83
-12.33
2.18
14.24
24.02
31.98
38.60
44.21
48.94
52.73
55.43
56.94
57.26
56.58
55.21
53.49
51.69
49.94
48.23
46.50
44.73
42.85
40.80
38.42
35.48
31.81
27.37
22.35
17.03
11.68
6.41
1.15
-4.29
-10.05
-16.12
-22.31
-28.30
-33.85
-38.91
-43.74
-48.88
-54.91
-62.23
-70.75
-79.69
-87.65
-92.88
-93.80
-89.45
-79.85
-65.95
-49.33
-31.74
-14.70
0.73
14.02
25.08
34.10
41.42
47.36
52.10
55.62
57.80
58.57
58.02
56.51
54.52
52.52
50.78
49.39
48.25
47.22
46.08
44.64
42.64
39.87
36.23
31.82
26.91
21.83
16.85
12.02
7.26
2.38
-2.76
-8.17
-13.76
-19.35
-24.81
-30.09
-35.21
-40.31
-45.60
-51.32
-57.66
-64.61
-71.90
-78.71
-83.76
-85.42
-82.21
-73.39
-59.33
-41.58
-22.45
-4.24
11.40
23.84
33.33
40.58
46.19
50.42
53.19
54.42
54.17
52.78
50.75
48.56
46.52
44.78
43.30
42.00
40.70
39.29
37.59
35.51
33.00
30.05
26.66
22.83
18.52
13.67
8.28
2.42
-3.71
-9.85
-15.71
-21.10
-26.00
-30.62
-35.28
-40.39
-46.34
-53.33
-61.26
-69.58
-77.25
-82.78
-84.56
-81.28
-72.36
-58.29
-40.54
-21.16
-2.25
14.60
28.42
38.94
46.39
51.26
54.22
55.91
56.88
57.46
57.76
57.64
56.97
55.64
53.68
51.24
48.60
45.97
43.55
41.41
39.48
37.52
35.21
32.19
28.24
23.37
17.74
11.63
5.29
-1.11
-7.46
-13.68
-19.70
-25.46
-30.94
-36.18
-41.30
-46.52
-52.14
-58.49
-65.83
-74.14
-82.96
-91.29
-97.65
-100.37
-98.06
-90.01
-76.49
-58.76
-38.79
-18.74
-0.47
14.87
26.98
36.22
43.29
48.85
53.33
56.87
59.41
60.86
61.15
60.34
58.60
56.21
53.50
50.83
48.48
46.56
44.99
43.57
42.04
40.18
37.77
34.64
30.62
25.64
19.81
13.43
6.91
0.61
-5.27
-10.76
-16.01
-21.17
-26.30
-31.42
-36.56
-41.91
-47.78
-54.51
-62.25
-70.71
-79.00
-85.62
-88.74
-86.70
-78.62
-64.76
-46.57
-26.33
-6.49
11.04
25.20
35.83
43.35
48.39
51.49
53.04
53.30
52.56
51.14
49.42
47.70
46.16
44.79
43.49
42.13
40.61
38.90
37.01
34.88
32.39
29.45
26.00
22.12
17.92
13.47
8.73
3.52
-2.26
-8.54
-15.01
-21.31
-27.17
-32.62
-37.93
-43.56
-49.90
-57.16
-65.29
-73.87
-82.08
-88.68
-92.11
-90.94
-84.24
-71.99
-55.19
-35.66
-15.51
3.33
19.53
32.43
42.05
48.81
53.36
56.27
58.00
58.79
58.79
58.11
56.91
55.38
53.69
51.88
49.94
47.87
45.69
43.44
41.16
38.72
35.93
32.57
28.56
24.01
19.12
14.12
9.04
3.77
-1.88
-8.07
-14.79
-21.77
-28.62
-34.97
-40.59
-45.61
-50.40
-55.59
-61.79
-69.34
-78.06
-87.22
-95.42
-100.89
-101.81
-96.84
-85.57
-68.76
-48.20
-26.28
-5.25
13.21
28.35
40.08
48.75
54.79
58.69
60.93
62.06
62.61
62.94
63.14
62.99
62.22
60.65
58.29
55.36
52.17
49.02
46.10
43.45
40.92
38.19
34.85
30.60
25.36
19.37
13.02
6.69
0.57
-5.40
-11.37
-17.39
-23.29
-28.87
-33.96
-38.61
-43.13
-47.95
-53.57
-60.35
-68.47
-77.70
-87.27
-95.82
-101.49
-102.39
-97.16
-85.43
-68.12
-47.15
-25.07
-4.29
13.44
27.35
37.54
44.81
50.06
54.04
57.07
59.16
60.12
59.88
58.50
56.21
53.35
50.23
47.19
44.50
42.33
40.70
39.45
38.28
36.81
34.70
31.69
27.63
22.49
16.47
9.89
3.21
-3.13
-8.87
-13.97
-18.66
-23.21
-27.91
-32.98
-38.60
-44.91
-52.01
-59.96
-68.55
-77.23
-84.97
-90.34
-91.76
-87.87
-78.06
-62.85
-43.84
-23.35
-3.69
13.44
27.27
37.83
45.57
51.01
54.50
56.26
56.51
55.43
53.34
50.55
47.45
44.43
41.84
39.88
38.55
37.59
36.61
35.27
33.39
30.87
27.69
23.81
19.19
13.79
7.75
1.31
-5.23
-11.66
-17.84
-23.77
-29.48
-35.10
-40.77
-46.77
-53.43
-61.06
-69.76
-79.23
-88.65
-96.63
-101.46
-101.47
-95.56
-83.61
-66.59
-46.40
-25.24
-5.15
12.57
27.35
39.25
48.62
55.82
61.07
64.48
66.11
66.06
64.61
62.20
59.36
56.63
54.34
52.60
51.21
49.87
48.22
46.03
43.15
39.55
35.30
30.57
25.55
20.42
15.26
9.98
4.37
-1.75
-8.39
-15.35
-22.32
-29.03
-35.42
-41.67
-48.12
-55.13
-63.00
-71.81
-81.27
-90.56
-98.31
-102.70
-102.01
-95.10
-81.94
-63.66
-42.28
-20.10
0.82
19.09
34.01
45.51
53.90
59.72
63.54
65.86
67.04
67.31
66.78
65.56
63.75
61.53
59.09
56.55
54.05
51.67
49.39
47.11
44.66
41.79
38.32
34.18
29.41
24.18
18.65
12.95
7.12
1.11
-5.19
-11.90
-19.01
-26.37
-33.65
-40.48
-46.61
-52.07
-57.26
-62.84
-69.50
-77.54
-86.58
-95.39
-102.04
-104.38
-100.63
-90.00
-73.05
-51.59
-28.22
-5.58
14.31
30.36
42.45
51.09
56.97
60.74
62.87
63.71
63.54
62.66
61.36
59.83
58.16
56.33
54.28
51.97
49.42
46.72
44.00
41.32
38.63
35.72
32.31
28.18
23.29
17.84
12.09
6.25
0.33
-5.83
-12.38
-19.30
-26.31
-33.01
-39.09
-44.52
-49.64
-55.09
-61.54
-69.34
-78.26
-87.26
-94.61
-98.22
-96.19
-87.48
-72.29
-52.14
-29.40
-6.69
13.81
30.72
43.58
52.61
58.42
61.75
63.25
63.46
62.70
61.23
59.23
56.89
54.37
51.86
49.47
47.24
45.13
43.06
40.91
38.54
35.81
32.61
28.84
24.49
19.57
14.15
8.27
1.98
-4.63
-11.41
-18.16
-24.68
-30.84
-36.70
-42.47
-48.43
-54.91
-62.19
-70.44
-79.55
-88.99
-97.70
-104.00
-106.04
-102.22
-91.80
-75.28
-54.34
-31.43
-9.08
10.74
26.97
39.44
48.66
55.34
60.12
63.41
65.44
66.31
66.21
65.33
63.89
62.06
59.94
57.60
55.12
52.61
50.14
47.73
45.26
42.51
39.27
35.41
30.86
25.72
20.13
14.20
8.11
1.96
-4.24
-10.49
-16.87
-23.42
-30.09
-36.76
-43.32
-49.77
-56.32
-63.37
-71.31
-80.22
-89.59
-98.14
-104.03
-105.28
-100.38
-88.91
-71.72
-50.71
-28.34
-6.84
12.18
27.94
40.36
49.73
56.45
60.93
63.60
64.85
65.10
64.67
63.74
62.40
60.68
58.68
56.53
54.43
52.45
50.54
48.48
45.93
42.65
38.48
33.53
28.09
22.51
17.13
12.09
7.27
2.40
-2.88
-8.81
-15.43
-22.53
-29.79
-36.83
-43.39
-49.41
-55.09
-60.90
-67.42
-75.02
-83.54
-91.99
-98.62
-101.33
-98.34
-88.83
-73.36
-53.62
-32.05
-11.07
7.49
22.66
34.26
42.65
48.40
52.00
53.85
54.26
53.55
52.16
50.56
49.15
48.06
47.19
46.22
44.86
42.94
40.51
37.74
34.79
31.78
28.74
25.54
21.98
17.76
12.63
6.46
-0.56
-8.02
-15.31
-21.96
-27.82
-33.14
-38.45
-44.39
-51.44
-59.71
-68.87
-78.04
-85.85
-90.64
-90.89
-85.59
-74.67
-59.13
-40.74
-21.62
-3.60
12.12
25.10
35.48
43.57
49.65
53.78
56.01
56.44
55.47
53.68
51.68
49.85
48.24
46.61
44.61
42.09
39.11
36.00
33.10
30.54
28.19
25.63
22.31
17.79
11.91
4.83
-2.96
-10.85
-18.27
-24.89
-30.68
-35.92
-41.17
-47.11
-54.31
-63.03
-72.93
-82.91
-91.21
-95.77
-94.86
-87.70
-74.75
-57.59
-38.48
-19.55
-2.36
12.37
24.65
34.84
43.32
50.31
55.81
59.77
62.14
63.04
62.73
61.54
59.80
57.75
55.46
52.94
50.19
47.26
44.29
41.37
38.53
35.61
32.32
28.37
23.54
17.81
11.37
4.53
-2.35
-9.00
-15.34
-21.44
-27.52
-33.89
-40.82
-48.53
-57.07
-66.23
-75.45
-83.67
-89.48
-91.35
-88.12
-79.44
-65.97
-49.22
-31.13
-13.48
2.58
16.58
28.61
39.01
48.05
55.79
62.09
66.75
69.66
70.85
70.56
69.16
67.10
64.72
62.25
59.82
57.41
54.94
52.32
49.41
46.11
42.29
37.91
32.99
27.65
22.00
16.18
10.24
4.23
-1.86
-8.04
-14.35
-20.77
-27.24
-33.69
-40.15
-46.74
-53.72
-61.38
-69.75
-78.36
-86.18
-91.69
-93.28
-89.83
-81.02
-67.57
-50.99
-33.17
-15.81
-0.02
13.77
25.68
36.04
45.07
52.71
58.78
63.07
65.56
66.44
66.06
64.76
62.80
60.41
57.82
55.29
53.08
51.24
49.63
47.86
45.50
42.22
37.98
33.00
27.66
22.29
17.04
11.84
6.47
0.73
-5.41
-11.75
-17.99
-23.83
-29.18
-34.20
-39.28
-44.88
-51.33
-58.68
-66.59
-74.29
-80.60
-84.14
-83.62
-78.27
-68.12
-54.13
-37.96
-21.48
-6.26
6.77
17.38
25.87
32.72
38.30
42.76
46.10
48.22
49.14
48.99
48.01
46.40
44.36
41.97
39.28
36.38
33.38
30.48
27.85
25.58
23.58
21.59
19.23
16.08
11.87
6.51
0.21
-6.63
-13.46
-19.78
-25.25
-29.79
-33.66
-37.33
-41.42
-46.47
-52.82
-60.34
-68.46
-76.07
-81.75
-84.05
-81.83
-74.72
-63.19
-48.55
-32.52
-16.84
-2.78
9.02
18.50
25.91
31.60
35.78
38.54
39.99
40.29
39.73
38.68
37.45
36.26
35.07
33.70
31.92
29.63
26.93
24.12
21.51
19.28
17.26
15.05
12.11
8.11
2.98
-3.00
-9.36
-15.59
-21.35
-26.48
-31.12
-35.63
-40.49
-46.23
-53.14
-61.06
-69.28
-76.59
-81.54
-82.79
-79.57
-71.83
-60.30
-46.24
-31.14
-16.34
-2.83
8.89
18.65
26.57
32.89
37.82
41.56
44.27
46.01
46.83
46.72
45.72
43.96
41.73
39.32
37.02
34.92
32.96
30.92
28.68
26.17
23.51
20.75
17.85
14.57
10.61
5.68
-0.25
-6.96
-13.98
-20.85
-27.13
-32.63
-37.45
-41.95
-46.63
-52.08
-58.71
-66.53
-74.99
-82.96
-88.88
-91.10
-88.41
-80.37
-67.58
-51.47
-33.97
-16.91
-1.58
11.45
22.23
31.11
38.54
44.80
50.03
54.34
57.77
60.32
61.91
62.41
61.69
59.77
56.92
53.59
50.35
47.63
45.67
44.38
43.41
42.26
40.39
37.41
33.20
27.94
22.03
15.95
10.11
4.68
-0.42
-5.38
-10.44
-15.72
-21.15
-26.59
-31.89
-37.01
-42.08
-47.37
-53.22
-59.93
-67.46
-75.35
-82.59
-87.71
-89.18
-85.86
-77.44
-64.65
-48.99
-32.33
-16.22
-1.60
11.28
22.55
32.37
40.75
47.58
52.72
56.27
58.47
59.66
60.11
60.00
59.35
58.16
56.47
54.42
52.25
50.15
48.32
46.77
45.32
43.62
41.27
38.00
33.78
28.90
23.84
19.06
14.86
11.20
7.81
4.37
0.57
-3.71
-8.50
-13.71
-19.20
-24.81
-30.39
-35.82
-41.15
-46.57
-52.34
-58.59
-65.01
-70.77
-74.62
-75.20
-71.54
-63.48
-51.72
-37.66
-22.96
-9.10
2.85
12.44
19.70
24.98
28.79
31.60
33.76
35.44
36.65
37.34
37.49
37.10
36.24
35.04
33.62
32.12
30.61
29.19
27.87
26.64
25.40
24.03
22.34
20.18
17.47
14.24
10.56
6.57
2.35
-2.02
-6.52
-11.01
-15.32
-19.30
-22.86
-26.12
-29.38
-33.06
-37.50
-42.86
-48.87
-54.88
-59.87
-62.66
-62.22
-57.98
-50.09
-39.41
-27.33
-15.27
-4.41
4.63
11.73
17.11
21.09
24.00
26.08
27.52
28.42
28.82
28.71
28.06
26.87
25.26
23.45
21.74
20.27
19.05
17.87
16.46
14.60
12.24
9.46
6.44
3.28
-0.02
-3.54
-7.41
-11.69
-16.41
-21.58
-27.15
-32.95
-38.61
-43.56
-47.18
-49.15
-49.65
-49.35
-49.11
-49.55
-50.68
-51.80
-51.77
-49.48
-44.22
-35.96
-25.31
-13.31
-1.17
10.05
19.62
27.23
32.96
37.15
40.12
42.12
43.23
43.45
42.81
41.47
39.65
37.55
35.32
33.05
30.79
28.60
26.57
24.71
22.96
21.17
19.17
16.79
13.92
10.50
6.52
2.00
-2.93
-8.09
-13.22
-18.10
-22.57
-26.60
-30.31
-33.94
-37.74
-42.02
-46.97
-52.63
-58.83
-65.10
-70.72
-74.75
-76.29
-74.64
-69.53
-61.26
-50.67
-38.93
-27.20
-16.44
-7.12
0.73
7.39
13.17
18.23
22.53
25.91
28.21
29.41
29.69
29.31
28.63
27.92
27.37
27.02
26.75
26.36
25.61
24.36
22.55
20.25
17.51
14.37
10.83
6.86
2.51
-2.12
-6.87
-11.59
-16.26
-20.88
-25.53
-30.24
-35.10
-40.23
-45.83
-52.07
-58.91
-65.96
-72.40
-77.06
-78.71
-76.43
-69.89
-59.52
-46.37
-31.88
-17.42
-4.06
7.57
17.26
25.04
31.08
35.57
38.69
40.67
41.75
42.16
42.06
41.55
40.68
39.49
38.05
36.46
34.82
33.21
31.71
30.25
28.68
26.75
24.11
20.47
15.65
9.75
3.06
-3.90
-10.60
-16.66
-22.00
-26.83
-31.62
-36.97
-43.38
-51.10
-59.96
-69.23
-77.60
-83.31
-84.63
-80.36
-70.27
-55.36
-37.56
-19.19
-2.21
12.26
24.02
33.52
41.38
47.97
53.36
57.44
60.16
61.65
62.17
62.03
61.35
60.13
58.30
55.85
52.89
49.66
46.46
43.48
40.80
38.26
35.53
32.18
27.85
22.36
15.81
8.60
1.20
-5.95
-12.63
-18.89
-24.96
-31.19
-37.94
-45.52
-54.10
-63.54
-73.17
-81.76
-87.63
-89.11
-85.03
-75.14
-60.26
-42.06
-22.56
-3.64
13.34
27.71
39.41
48.73
56.11
61.87
66.17
69.03
70.44
70.49
69.39
67.48
65.11
62.54
59.86
57.03
54.01
50.80
47.55
44.43
41.50
38.58
35.23
30.90
25.18
18.01
9.76
1.18
-6.97
-14.12
-20.10
-25.15
-29.77
-34.53
-39.95
-46.38
-54.00
-62.61
-71.61
-79.86
-85.76
-87.59
-84.04
-74.63
-59.97
-41.70
-21.97
-2.79
14.44
29.11
41.26
51.24
59.38
65.84
70.63
73.76
75.33
75.52
74.62
72.85
70.42
67.49
64.26
60.93
57.69
54.67
51.85
49.14
46.35
43.25
39.63
35.28
30.05
23.92
17.04
9.75
2.55
-4.12
-9.98
-15.05
-19.64
-24.21
-29.24
-35.11
-42.02
-49.98
-58.64
-67.21
-74.36
-78.38
-77.65
-71.17
-59.08
-42.70
-24.19
-5.83
10.60
24.28
35.21
43.82
50.54
55.60
58.99
60.73
60.98
60.12
58.57
56.70
54.67
52.53
50.24
47.84
45.40
42.99
40.60
38.18
35.59
32.69
29.32
25.32
20.55
15.03
8.98
2.84
-2.90
-7.89
-12.09
-15.86
-19.82
-24.56
-30.46
-37.54
-45.48
-53.59
-60.86
-66.08
-67.98
-65.64
-58.84
-48.16
-34.90
-20.71
-7.08
4.99
15.11
23.27
29.69
34.53
37.84
39.67
40.17
39.61
38.35
36.69
34.83
32.78
30.52
28.02
25.41
22.95
20.86
19.24
17.89
16.39
14.21
10.97
6.63
1.49
-3.89
-8.93
-13.27
-16.85
-19.96
-23.17
-27.13
-32.36
-39.09
-47.00
-55.23
-62.35
-66.73
-66.94
-62.23
-52.78
-39.75
-24.94
-10.22
2.89
13.52
21.48
27.01
30.57
32.58
33.38
33.23
32.40
31.15
29.74
28.31
26.86
25.30
23.54
21.54
19.35
17.12
14.98
12.98
11.06
9.03
6.68
3.80
0.33
-3.65
-7.93
-12.25
-16.40
-20.27
-23.89
-27.39
-31.02
-35.04
-39.63
-44.80
-50.23
-55.22
-58.81
-60.00
-58.05
-52.79
-44.67
-34.66
-23.97
-13.64
-4.37
3.58
10.26
15.87
20.55
24.33
27.13
28.88
29.62
29.53
28.93
28.10
27.23
26.28
25.11
23.54
21.51
19.16
16.74
14.49
12.50
10.68
8.76
6.47
3.62
0.19
-3.67
-7.74
-11.76
-15.55
-18.99
-22.12
-25.07
-28.04
-31.27
-34.95
-39.23
-44.07
-49.24
-54.18
-58.04
-59.80
-58.51
-53.68
-45.46
-34.76
-22.97
-11.58
-1.74
6.06
11.95
16.47
20.23
23.60
26.63
29.15
30.93
31.88
32.08
31.78
31.16
30.30
29.15
27.70
26.00
24.22
22.61
21.30
20.21
19.12
17.69
15.67
13.01
9.86
6.49
3.13
-0.07
-3.15
-6.25
-9.56
-13.15
-16.98
-20.90
-24.74
-28.36
-31.79
-35.20
-38.80
-42.86
-47.52
-52.74
-58.13
-63.01
-66.45
-67.52
-65.50
-60.17
-51.89
-41.47
-30.07
-18.80
-8.54
0.18
7.24
12.83
17.34
21.14
24.57
27.76
30.67
33.12
34.89
35.80
35.80
34.94
33.45
31.64
29.86
28.39
27.35
26.66
26.07
25.24
23.87
21.80
19.02
15.64
11.87
7.92
4.00
0.26
-3.25
-6.57
-9.84
-13.15
-16.58
-20.06
-23.44
-26.65
-29.75
-32.98
-36.81
-41.64
-47.63
-54.45
-61.25
-66.78
-69.70
-68.96
-64.07
-55.28
-43.52
-30.23
-16.94
-4.99
4.85
12.42
18.09
22.58
26.51
30.24
33.74
36.73
38.81
39.78
39.60
38.48
36.72
34.72
32.81
31.29
30.30
29.79
29.50
29.04
28.06
26.37
23.94
20.94
17.55
13.93
10.08
5.99
1.64
-2.88
-7.42
-11.79
-15.87
-19.59
-23.08
-26.54
-30.28
-34.65
-39.92
-46.12
-52.83
-59.14
-63.73
-65.24
-62.67
-55.73
-45.03
-31.89
-17.90
-4.55
7.18
16.89
24.62
30.64
35.28
38.78
41.32
43.05
44.10
44.54
44.42
43.77
42.59
40.97
39.08
37.11
35.25
33.62
32.19
30.81
29.27
27.34
24.84
21.72
18.02
13.88
9.44
4.82
0.10
-4.66
-9.40
-14.01
-18.38
-22.52
-26.51
-30.58
-35.01
-40.13
-46.10
-52.92
-60.20
-67.14
-72.53
-74.94
-73.22
-66.78
-56.01
-42.18
-27.09
-12.45
0.56
11.47
20.44
27.87
34.06
39.17
43.19
46.12
48.03
49.06
49.32
48.88
47.79
46.16
44.25
42.39
40.86
39.70
38.69
37.38
35.41
32.64
29.21
25.50
21.88
18.54
15.38
12.17
8.61
4.50
-0.23
-5.51
-11.19
-16.98
-22.59
-27.73
-32.29
-36.49
-40.80
-45.86
-52.16
-59.70
-67.78
-75.02
-79.72
-80.24
-75.62
-65.86
-52.01
-35.80
-19.24
-4.04
8.78
18.95
26.73
32.68
37.36
41.17
44.31
46.83
48.74
49.98
50.51
50.34
49.48
48.04
46.18
44.15
42.23
40.65
39.50
38.60
37.60
36.06
33.63
30.22
26.04
21.47
16.89
12.51
8.32
4.12
-0.32
-5.06
-10.00
-14.93
-19.62
-24.00
-28.15
-32.33
-36.88
-42.11
-48.15
-54.89
-61.76
-67.74
-71.48
-71.62
-67.24
-58.16
-45.22
-30.00
-14.43
-0.15
11.79
21.13
28.13
33.29
37.05
39.72
41.47
42.43
42.77
42.65
42.19
41.44
40.41
39.10
37.55
35.90
34.29
32.82
31.48
30.18
28.76
27.04
24.89
22.23
18.98
15.15
10.79
6.06
1.18
-3.58
-8.06
-12.21
-16.16
-20.18
-24.57
-29.57
-35.30
-41.63
-48.14
-54.06
-58.33
-59.79
-57.52
-51.13
-41.07
-28.51
-15.11
-2.53
8.05
16.20
22.15
26.53
29.97
32.82
35.08
36.58
37.19
36.90
35.92
34.51
32.88
31.14
29.35
27.54
25.81
24.20
22.78
21.47
20.13
18.56
16.47
13.60
9.80
5.12
-0.13
-5.41
-10.16
-14.00
-16.91
-19.25
-21.63
-24.66
-28.81
-34.25
-40.78
-47.77
-54.27
-59.06
-60.93
-59.06
-53.23
-43.98
-32.45
-20.09
-8.30
1.92
10.11
16.33
21.05
24.87
28.27
31.49
34.43
36.83
38.36
38.89
38.44
37.27
35.67
33.91
32.14
30.44
28.80
27.21
25.61
23.90
21.94
19.55
16.56
12.87
8.52
3.67
-1.35
-6.15
-10.45
-14.11
-17.21
-20.03
-22.94
-26.20
-30.00
-34.41
-39.40
-44.87
-50.52
-55.85
-60.02
-62.03
-60.98
-56.40
-48.49
-38.09
-26.47
-14.99
-4.66
4.01
11.01
16.66
21.40
25.54
29.22
32.36
34.77
36.24
36.66
36.09
34.73
32.91
30.97
29.23
27.87
26.90
26.19
25.49
24.52
23.05
20.95
18.21
14.97
11.40
7.70
4.05
0.60
-2.63
-5.67
-8.65
-11.75
-15.18
-19.08
-23.54
-28.50
-33.82
-39.31
-44.77
-50.00
-54.76
-58.68
-61.23
-61.79
-59.80
-55.04
-47.69
-38.37
-27.95
-17.32
-7.16
2.10
10.25
17.21
22.93
27.41
30.71
32.88
34.01
34.20
33.58
32.37
30.90
29.51
28.45
27.79
27.41
27.08
26.52
25.47
23.75
21.34
18.36
15.04
11.72
8.61
5.75
2.98
0.03
-3.31
-7.06
-11.14
-15.36
-19.60
-23.79
-27.99
-32.26
-36.73
-41.48
-46.53
-51.61
-56.14
-59.14
-59.58
-56.66
-50.17
-40.68
-29.32
-17.46
-6.24
3.59
11.77
18.35
23.53
27.51
30.45
32.47
33.64
34.07
33.89
33.24
32.33
31.29
30.21
29.06
27.74
26.17
24.36
22.42
20.50
18.68
16.87
14.81
12.22
8.87
4.69
-0.15
-5.34
-10.43
-15.04
-18.95
-22.19
-25.04
-28.03
-31.62
-36.16
-41.67
-47.82
-53.94
-59.15
-62.42
-62.80
-59.64
-52.78
-42.72
-30.52
-17.57
-5.16
5.78
14.88
22.16
27.85
32.16
35.22
37.12
37.99
38.07
37.66
37.08
36.49
35.89
35.17
34.21
32.94
31.39
29.66
27.79
25.80
23.59
21.03
17.99
14.39
10.21
5.59
0.76
-3.98
-8.35
-12.25
-15.88
-19.65
-24.11
-29.60
-36.07
-42.89
-49.02
-53.21
-54.36
-51.83
-45.61
-36.31
-25.04
-13.07
-1.50
8.90
17.91
25.61
32.24
37.95
42.71
46.41
48.92
50.30
50.68
50.27
49.24
47.69
45.76
43.59
41.32
39.11
37.02
35.02
33.06
31.05
28.87
26.41
23.46
19.86
15.56
10.72
5.65
0.79
-3.58
-7.42
-10.92
-14.45
-18.43
-23.13
-28.69
-34.99
-41.59
-47.74
-52.42
-54.62
-53.54
-48.90
-41.02
-30.80
-19.43
-8.11
2.29
11.30
18.92
25.40
31.03
35.96
40.11
43.32
45.45
46.49
46.60
45.95
44.70
42.89
40.60
37.97
35.27
32.80
30.78
29.14
27.64
25.90
23.69
20.94
17.86
14.72
11.75
9.03
6.42
3.67
0.55
-3.07
-7.14
-11.46
-15.73
-19.72
-23.30
-26.57
-29.74
-33.11
-36.93
-41.21
-45.63
-49.54
-52.01
-52.16
-49.38
-43.63
-35.46
-25.89
-16.04
-6.92
0.89
7.20
12.07
15.72
18.34
20.11
21.22
21.93
22.48
23.08
23.74
24.33
24.57
24.20
23.15
21.52
19.63
17.78
16.19
14.89
13.77
12.62
11.29
9.76
8.07
6.29
4.45
2.48
0.25
-2.40
-5.49
-8.90
-12.37
-15.53
-18.12
-20.04
-21.46
-22.73
-24.28
-26.47
-29.43
-33.08
-37.10
-40.98
-44.05
-45.59
-44.96
-41.78
-36.14
-28.65
-20.30
-12.19
-5.18
0.26
4.13
6.70
8.37
9.52
10.44
11.31
12.26
13.24
14.14
14.75
14.84
14.29
13.14
11.57
9.84
8.25
6.98
6.13
5.64
5.35
5.00
4.37
3.32
1.81
-0.08
-2.20
-4.45
-6.74
-9.01
-11.11
-12.95
-14.42
-15.58
-16.62
-17.88
-19.63
-22.07
-25.19
-28.87
-32.86
-36.79
-40.21
-42.55
-43.24
-41.86
-38.26
-32.74
-25.96
-18.76
-11.98
-6.19
-1.59
1.95
4.80
7.27
9.48
11.38
12.79
13.59
13.82
13.68
13.39
13.08
12.77
12.47
12.18
11.99
11.95
11.98
11.84
11.23
9.94
7.99
5.60
3.11
0.74
-1.41
-3.39
-5.30
-7.20
-9.19
-11.31
-13.65
-16.28
-19.17
-22.21
-25.26
-28.25
-31.23
-34.29
-37.48
-40.59
-43.11
-44.33
-43.56
-40.43
-35.06
-28.04
-20.25
-12.57
-5.58
0.49
5.66
10.08
13.82
16.84
19.08
20.52
21.20
21.31
21.08
20.71
20.38
20.14
20.00
19.90
19.73
19.42
18.88
18.06
16.86
15.22
13.14
10.67
8.03
5.45
3.12
0.99
-1.10
-3.47
-6.33
-9.73
-13.49
-17.34
-21.04
-24.49
-27.75
-31.05
-34.64
-38.67
-43.15
-47.84
-52.13
-55.23
-56.27
-54.56
-49.80
-42.26
-32.66
-22.05
-11.51
-1.87
6.35
13.02
18.31
22.47
25.75
28.29
30.16
31.40
32.13
32.56
32.88
33.16
33.37
33.34
32.92
32.10
30.99
29.74
28.40
26.90
25.08
22.85
20.27
17.51
14.72
11.96
9.07
5.85
2.19
-1.86
-6.07
-10.24
-14.19
-17.93
-21.58
-25.36
-29.43
-33.96
-39.06
-44.72
-50.67
-56.30
-60.66
-62.64
-61.29
-56.10
-47.27
-35.72
-22.82
-10.04
1.44
10.96
18.41
24.08
28.43
31.86
34.63
36.84
38.51
39.62
40.16
40.21
39.83
39.14
38.19
37.09
35.88
34.64
33.51
32.54
31.71
30.84
29.62
27.73
24.98
21.38
17.12
12.49
7.77
3.18
-1.11
-5.03
-8.60
-11.97
-15.44
-19.40
-24.15
-29.85
-36.38
-43.35
-50.05
-55.57
-58.84
-58.87
-54.99
-47.13
-35.96
-22.77
-9.10
3.63
14.42
22.88
29.12
33.57
36.73
39.04
40.73
41.85
42.37
42.24
41.58
40.62
39.60
38.68
37.79
36.77
35.47
33.90
32.20
30.52
28.81
26.83
24.20
20.64
16.10
10.81
5.18
-0.39
-5.61
-10.35
-14.61
-18.54
-22.38
-26.49
-31.23
-36.85
-43.39
-50.54
-57.62
-63.62
-67.36
-67.76
-64.12
-56.40
-45.30
-32.11
-18.35
-5.40
5.83
14.99
22.17
27.68
31.86
35.00
37.29
38.87
39.89
40.44
40.62
40.45
39.90
38.87
37.27
35.09
32.52
29.90
27.58
25.78
24.38
22.95
20.91
17.77
13.36
7.86
1.70
-4.57
-10.48
-15.70
-20.16
-24.02
-27.72
-31.86
-36.99
-43.32
-50.58
-57.82
-63.69
-66.73
-65.75
-60.20
-50.36
-37.30
-22.58
-7.93
5.24
16.09
24.42
30.48
34.78
37.78
39.85
41.26
42.21
42.87
43.27
43.28
42.66
41.20
38.85
35.87
32.67
29.63
26.97
24.62
22.26
19.50
16.08
11.93
7.22
2.20
-2.90
-7.99
-13.12
-18.46
-24.15
-30.26
-36.77
-43.44
-49.75
-54.88
-57.73
-57.25
-52.78
-44.38
-32.93
-19.91
-6.85
5.03
15.14
23.42
30.07
35.22
38.94
41.19
42.01
41.67
40.53
39.00
37.41
35.90
34.48
33.05
31.50
29.72
27.67
25.29
22.54
19.35
15.66
11.48
6.98
2.42
-1.94
-5.95
-9.73
-13.68
-18.29
-23.99
-30.91
-38.74
-46.65
-53.46
-57.78
-58.37
-54.52
-46.28
-34.61
-21.10
-7.53
4.57
14.38
21.82
27.32
31.47
34.74
37.33
39.23
40.39
40.79
40.49
39.59
38.12
36.13
33.70
31.03
28.40
26.11
24.25
22.69
21.07
18.93
15.94
12.00
7.36
2.37
-2.59
-7.27
-11.62
-15.72
-19.81
-24.16
-29.07
-34.72
-40.96
-47.17
-52.26
-54.93
-54.09
-49.27
-40.82
-29.78
-17.51
-5.36
5.70
15.09
22.52
27.91
31.36
33.13
33.61
33.26
32.50
31.66
30.88
30.19
29.46
28.55
27.30
25.67
23.72
21.56
19.30
16.98
14.50
11.76
8.68
5.32
1.80
-1.71
-5.15
-8.55
-12.07
-15.88
-20.16
-25.02
-30.54
-36.53
-42.56
-47.87
-51.45
-52.32
-49.80
-43.79
-34.85
-24.09
-12.88
-2.42
6.47
13.57
19.07
23.36
26.74
29.33
31.04
31.80
31.64
30.77
29.50
28.05
26.52
24.88
23.16
21.38
19.66
18.10
16.65
15.12
13.23
10.69
7.37
3.32
-1.25
-5.96
-10.43
-14.40
-17.84
-20.99
-24.39
-28.55
-33.80
-39.99
-46.49
-52.20
-55.86
-56.33
-52.98
-45.87
-35.81
-24.15
-12.41
-1.84
6.82
13.50
18.55
22.50
25.75
28.51
30.75
32.41
33.41
33.79
33.60
32.91
31.76
30.18
28.22
26.02
23.80
21.88
20.46
19.53
18.74
17.49
15.12
11.27
6.03
-0.04
-6.12
-11.54
-16.02
-19.67
-22.89
-26.22
-30.13
-34.91
-40.60
-46.95
-53.25
-58.47
-61.39
-60.98
-56.73
-48.81
-38.12
-26.00
-13.83
-2.72
6.68
14.23
20.16
24.85
28.70
31.92
34.55
36.53
37.80
38.41
38.47
38.09
37.25
35.89
33.90
31.28
28.23
25.08
22.21
19.89
18.12
16.65
15.05
12.85
9.72
5.58
0.61
-4.83
-10.28
-15.37
-19.89
-23.79
-27.23
-30.55
-34.16
-38.48
-43.69
-49.52
-55.14
-59.31
-60.66
-58.22
-51.76
-41.93
-29.98
-17.42
-5.53
4.89
13.53
20.46
25.85
29.93
32.87
34.83
36.01
36.63
36.89
36.89
36.66
36.16
35.30
34.10
32.60
30.90
29.11
27.26
25.35
23.34
21.22
18.94
16.46
13.65
10.40
6.64
2.41
-2.12
-6.70
-11.10
-15.20
-18.93
-22.34
-25.54
-28.71
-32.13
-36.10
-40.87
-46.44
-52.38
-57.80
-61.52
-62.30
-59.28
-52.27
-41.86
-29.28
-16.07
-3.70
6.85
15.12
21.18
25.40
28.25
30.16
31.47
32.43
33.19
33.81
34.20
34.23
33.76
32.77
31.36
29.71
27.98
26.20
24.34
22.31
20.06
17.62
15.09
12.55
10.00
7.36
4.45
1.14
-2.61
-6.67
-10.82
-14.80
-18.45
-21.76
-24.92
-28.23
-32.00
-36.43
-41.48
-46.78
-51.59
-54.89
-55.57
-52.77
-46.19
-36.33
-24.39
-11.92
-0.40
9.19
16.52
21.79
25.45
27.93
29.48
30.27
30.38
29.94
29.16
28.19
27.16
26.14
25.12
24.01
22.74
21.27
19.63
17.92
16.31
14.86
13.45
11.80
9.52
6.38
2.40
-2.09
-6.61
-10.74
-14.28
-17.28
-20.00
-22.79
-25.93
-29.69
-34.23
-39.53
-45.27
-50.71
-54.79
-56.33
-54.38
-48.60
-39.40
-27.92
-15.64
-4.03
5.88
13.60
19.19
23.02
25.58
27.29
28.47
29.30
29.90
30.28
30.37
30.05
29.14
27.62
25.57
23.29
21.08
19.16
17.53
15.97
14.17
11.88
8.94
5.29
0.91
-4.13
-9.59
-15.00
-19.74
-23.14
-24.81
-24.85
-23.80
-22.48
-21.72
-22.13
-23.99
-27.32
-31.84
-37.03
-41.98
-45.54
-46.56
-44.20
-38.28
-29.38
-18.64
-7.43
2.98
11.81
18.70
23.72
27.18
29.51
31.11
32.31
33.26
33.94
34.17
33.76
32.64
30.94
28.94
26.93
25.13
23.58
22.16
20.73
19.20
17.51
15.66
13.59
11.13
8.13
4.46
0.16
-4.57
-9.41
-13.97
-17.99
-21.36
-24.21
-26.89
-29.84
-33.50
-38.12
-43.65
-49.70
-55.56
-60.27
-62.77
-62.12
-57.78
-49.86
-39.11
-26.83
-14.48
-3.29
5.99
13.24
18.75
22.96
26.29
28.96
30.99
32.26
32.70
32.35
31.38
30.00
28.48
26.96
25.48
24.02
22.62
21.33
20.18
19.15
18.04
16.53
14.28
11.08
6.99
2.28
-2.59
-7.24
-11.34
-14.86
-17.95
-20.99
-24.34
-28.33
-33.09
-38.54
-44.38
-50.09
-54.98
-58.20
-58.82
-56.05
-49.60
-39.80
-27.70
-14.78
-2.49
8.10
16.54
22.90
27.51
30.70
32.67
33.57
33.59
33.04
32.29
31.63
31.14
30.68
29.95
28.75
27.04
25.02
23.01
21.25
19.76
18.33
16.55
14.06
10.69
6.50
1.80
-3.02
-7.63
-11.86
-15.74
-19.44
-23.32
-27.72
-32.92
-38.95
-45.39
-51.38
-55.74
-57.22
-54.96
-48.67
-38.83
-26.52
-13.17
-0.22
11.23
20.57
27.68
32.79
36.32
38.67
40.16
41.01
41.40
41.55
41.61
41.57
41.27
40.39
38.70
36.21
33.30
30.51
28.29
26.76
25.65
24.39
22.40
19.31
15.11
10.11
4.72
-0.59
-5.56
-10.09
-14.32
-18.53
-23.08
-28.24
-34.14
-40.53
-46.77
-51.79
-54.38
-53.54
-48.78
-40.43
-29.53
-17.50
-5.63
5.20
14.61
22.55
29.09
34.24
37.98
40.39
41.71
42.23
42.26
41.96
41.37
40.47
39.26
37.79
36.15
34.40
32.57
30.66
28.67
26.59
24.37
21.87
19.02
15.77
12.20
8.44
4.61
0.79
-2.99
-6.73
-10.44
-14.15
-17.98
-22.13
-26.74
-31.78
-36.92
-41.47
-44.56
-45.38
-43.43
-38.67
-31.56
-22.85
-13.45
-4.23
4.13
11.18
16.67
20.61
23.16
24.68
25.56
26.16
26.63
26.98
27.07
26.77
26.03
24.96
23.70
22.41
21.16
19.94
18.66
17.25
15.67
13.88
11.86
9.59
7.02
4.14
0.95
-2.46
-5.94
-9.26
-12.20
-14.64
-16.69
-18.64
-20.92
-23.91
-27.80
-32.43
-37.30
-41.65
-44.66
-45.59
-44.00
-39.86
-33.48
-25.55
-16.92
-8.43
-0.80
5.52
10.33
13.69
15.80
16.99
17.57
17.78
17.80
17.67
17.40
16.96
16.32
15.44
14.35
13.07
11.68
10.29
9.04
8.05
7.29
6.67
5.96
4.89
3.27
0.98
-1.88
-5.04
-8.21
-11.06
-13.44
-15.35
-17.01
-18.74
-20.86
-23.54
-26.81
-30.47
-34.07
-36.97
-38.43
-37.74
-34.46
-28.65
-20.88
-12.20
-3.75
3.52
9.06
12.78
15.00
16.16
16.67
16.85
16.85
16.71
16.49
16.21
15.91
15.63
15.30
14.80
14.06
13.13
12.18
11.43
10.97
10.66
10.13
9.01
7.09
4.42
1.20
-2.34
-6.03
-9.73
-13.33
-16.59
-19.32
-21.47
-23.23
-25.00
-27.22
-30.20
-33.95
-38.17
-42.25
-45.38
-46.75
-45.67
-41.87
-35.61
-27.62
-18.93
-10.51
-3.05
3.08
7.78
11.17
13.44
14.90
15.89
16.76
17.66
18.51
19.10
19.19
18.76
17.96
17.10
16.37
15.80
15.23
14.52
13.58
12.42
11.11
9.63
7.92
5.81
3.17
-0.06
-3.79
-7.77
-11.69
-15.20
-18.08
-20.32
-22.10
-23.80
-25.86
-28.68
-32.54
-37.55
-43.45
-49.66
-55.23
-58.98
-59.86
-57.27
-51.28
-42.64
-32.54
-22.23
-12.80
-4.91
1.19
5.67
8.96
11.61
14.11
16.74
19.54
22.27
24.62
26.32
27.19
27.23
26.57
25.44
24.10
22.85
21.89
21.30
20.98
20.76
20.36
19.56
18.16
16.04
13.19
9.72
5.85
1.87
-1.99
-5.62
-9.03
-12.33
-15.66
-19.10
-22.77
-26.81
-31.41
-36.66
-42.58
-48.87
-54.97
-60.01
-62.96
-62.93
-59.36
-52.26
-42.32
-30.73
-18.85
-7.80
1.78
9.81
16.49
22.03
26.49
29.80
31.90
32.92
33.13
32.90
32.49
32.02
31.51
30.95
30.33
29.67
28.94
28.07
27.01
25.75
24.33
22.71
20.79
18.36
15.27
11.48
7.18
2.68
-1.72
-5.87
-9.78
-13.62
-17.63
-22.03
-26.98
-32.56
-38.70
-45.09
-51.10
-55.79
-58.04
-56.85
-51.67
-42.65
-30.68
-17.19
-3.76
8.33
18.39
26.37
32.55
37.35
41.00
43.54
44.88
45.07
44.29
42.88
41.26
39.71
38.36
37.19
36.07
34.87
33.54
32.08
30.51
28.79
26.75
24.16
20.75
16.43
11.36
5.89
0.47
-4.54
-9.04
-13.17
-17.22
-21.52
-26.41
-32.11
-38.74
-46.10
-53.65
-60.37
-64.99
-66.17
-63.01
-55.29
-43.70
-29.64
-14.91
-1.16
10.49
19.69
26.70
32.14
36.61
40.42
43.59
45.99
47.49
48.09
47.89
47.01
45.58
43.70
41.46
38.99
36.49
34.09
31.96
30.14
28.57
27.05
25.13
22.29
18.14
12.63
6.15
-0.56
-6.79
-12.09
-16.50
-20.44
-24.44
-28.99
-34.41
-40.85
-48.29
-56.43
-64.57
-71.49
-75.68
-75.76
-70.87
-61.16
-47.66
-32.06
-16.21
-1.70
10.52
20.19
27.59
33.37
38.15
42.34
46.06
49.14
51.32
52.43
52.36
51.23
49.28
46.85
44.31
42.03
40.20
38.83
37.73
36.57
35.01
32.86
30.08
26.72
22.80
18.36
13.37
7.91
2.18
-3.52
-8.91
-13.85
-18.35
-22.66
-27.18
-32.37
-38.57
-45.88
-54.03
-62.29
-69.60
-74.76
-76.59
-74.26
-67.49
-56.68
-42.93
-27.76
-12.78
0.74
12.11
21.25
28.44
34.07
38.42
41.63
43.77
44.98
45.39
45.14
44.33
43.10
41.57
40.01
38.66
37.66
36.92
36.22
35.25
33.82
31.78
29.14
25.90
22.06
17.62
12.69
7.45
2.12
-2.99
-7.65
-11.79
-15.48
-19.06
-22.95
-27.58
-33.19
-39.73
-46.86
-54.03
-60.52
-65.45
-67.86
-66.80
-61.67
-52.55
-40.30
-26.39
-12.46
0.19
10.91
19.67
26.73
32.36
36.69
39.69
41.38
41.79
41.12
39.61
37.57
35.35
33.27
31.56
30.28
29.27
28.30
27.18
25.81
24.13
22.07
19.45
16.10
11.94
7.11
1.94
-3.13
-7.77
-11.85
-15.52
-19.05
-22.87
-27.38
-32.85
-39.36
-46.70
-54.24
-61.03
-65.84
-67.44
-64.95
-58.09
-47.40
-34.16
-20.06
-6.67
4.97
14.49
22.13
28.29
33.32
37.26
39.99
41.43
41.74
41.26
40.40
39.46
38.49
37.34
35.85
33.90
31.53
28.98
26.51
24.30
22.26
20.00
16.99
12.76
7.24
0.81
-5.78
-11.74
-16.60
-20.36
-23.46
-26.58
-30.34
-35.19
-41.34
-48.68
-56.68
-64.37
-70.34
-73.04
-71.27
-64.57
-53.50
-39.47
-24.36
-10.00
2.32
12.03
19.22
24.42
28.31
31.48
34.27
36.78
38.92
40.56
41.59
41.92
41.44
40.12
37.99
35.23
32.20
29.28
26.85
25.00
23.59
22.22
20.41
17.71
13.83
8.77
2.83
-3.49
-9.54
-14.82
-19.08
-22.49
-25.58
-29.08
-33.66
-39.69
-47.07
-55.15
-62.78
-68.53
-70.97
-69.08
-62.57
-52.00
-38.65
-24.17
-10.15
2.25
12.45
20.46
26.71
31.76
36.11
40.06
43.63
46.66
48.97
50.43
51.04
50.87
49.95
48.26
45.80
42.73
39.43
36.37
33.89
32.02
30.42
28.50
25.71
21.74
16.63
10.74
4.56
-1.45
-6.91
-11.66
-15.76
-19.50
-23.32
-27.76
-33.14
-39.59
-46.79
-54.05
-60.34
-64.47
-65.36
-62.29
-55.20
-44.69
-31.95
-18.42
-5.40
6.19
15.91
23.69
29.67
34.08
37.19
39.27
40.63
41.49
41.96
42.05
41.63
40.60
38.90
36.64
34.05
31.47
29.22
27.53
26.36
25.48
24.39
22.56
19.59
15.39
10.20
4.55
-0.96
-5.91
-10.13
-13.78
-17.25
-21.02
-25.51
-30.93
-37.09
-43.43
-48.98
-52.58
-53.12
-49.89
-42.86
-32.76
-20.85
-8.64
2.59
12.04
19.51
25.21
29.52
32.80
35.26
37.00
38.02
38.36
38.09
37.32
36.17
34.74
33.12
31.30
29.29
27.11
24.79
22.43
20.15
17.98
15.83
13.48
10.66
7.16
2.96
-1.78
-6.74
-11.59
-16.09
-20.20
-24.06
-27.92
-32.06
-36.66
-41.75
-47.08
-52.10
-56.01
-57.89
-56.95
-52.73
-45.37
-35.55
-24.37
-13.06
-2.64
6.25
13.49
19.26
23.88
27.63
30.61
32.80
34.12
34.61
34.39
33.72
32.82
31.84
30.74
29.48
27.96
26.19
24.24
22.21
20.12
17.89
15.42
12.65
9.57
6.27
2.85
-0.62
-4.12
-7.64
-11.12
-14.45
-17.54
-20.40
-23.23
-26.34
-30.10
-34.71
-40.09
-45.80
-51.09
-55.05
-56.84
-55.90
-52.06
-45.58
-37.18
-27.80
-18.37
-9.64
-2.01
4.50
10.05
14.87
19.07
22.62
25.37
27.18
28.00
27.94
27.18
25.99
24.60
23.15
21.74
20.37
19.03
17.70
16.38
15.10
13.82
12.44
10.83
8.83
6.38
3.54
0.47
-2.61
-5.59
-8.41
-11.13
-13.83
-16.56
-19.36
-22.34
-25.59
-29.26
-33.43
-38.02
-42.73
-46.93
-49.77
-50.38
-48.11
-42.80
-34.91
-25.43
-15.54
-6.36
1.40
7.50
12.06
15.37
17.75
19.52
20.89
22.05
23.03
23.77
24.08
23.77
22.81
21.33
19.62
17.97
16.58
15.49
14.59
13.77
12.91
11.93
10.74
9.22
7.19
4.50
1.14
-2.76
-6.88
-10.87
-14.44
-17.48
-20.07
-22.50
-25.07
-28.12
-31.85
-36.32
-41.38
-46.60
-51.22
-54.28
-54.81
-52.23
-46.53
-38.33
-28.69
-18.80
-9.61
-1.72
4.65
9.59
13.31
16.07
18.09
19.55
20.51
21.06
21.25
21.23
21.20
21.30
21.60
22.05
22.53
22.92
23.21
23.37
23.31
22.91
21.92
20.22
17.81
14.86
11.58
8.18
4.68
1.06
-2.75
-6.76
-10.90
-15.05
-19.09
-22.91
-26.49
-29.90
-33.36
-37.14
-41.51
-46.51
-51.81
-56.68
-60.07
-60.94
-58.51
-52.67
-43.98
-33.54
-22.70
-12.61
-3.91
3.23
9.06
13.90
17.97
21.33
23.93
25.75
26.88
27.45
27.57
27.30
26.65
25.67
24.52
23.42
22.54
21.92
21.46
20.93
20.15
18.93
17.17
14.83
11.87
8.38
4.51
0.49
-3.44
-7.11
-10.52
-13.80
-17.08
-20.53
-24.19
-28.09
-32.31
-36.95
-42.04
-47.36
-52.28
-55.84
-56.94
-54.69
-48.84
-39.84
-28.80
-17.02
-5.67
4.53
13.36
20.92
27.36
32.74
37.01
40.06
41.83
42.41
41.99
40.79
39.10
37.17
35.26
33.58
32.21
31.08
30.03
28.81
27.23
25.24
22.84
20.08
16.98
13.53
9.75
5.71
1.60
-2.41
-6.20
-9.81
-13.34
-17.00
-20.95
-25.32
-30.18
-35.58
-41.47
-47.64
-53.62
-58.69
-61.86
-62.17
-58.92
-52.00
-41.96
-29.91
-17.23
-5.14
5.61
14.76
22.42
28.88
34.32
38.79
42.21
44.51
45.69
45.84
45.19
44.01
42.59
41.18
39.95
38.93
38.02
37.09
35.99
34.58
32.80
30.59
27.87
24.64
20.97
17.04
13.05
9.16
5.39
1.64
-2.22
-6.31
-10.63
-15.09
-19.53
-23.86
-28.11
-32.50
-37.28
-42.61
-48.35
-53.94
-58.42
-60.69
-59.78
-55.21
-47.15
-36.38
-24.11
-11.58
0.16
10.44
18.96
25.76
31.05
35.11
38.18
40.44
41.96
42.81
43.03
42.73
42.04
41.09
39.98
38.76
37.44
36.05
34.57
32.99
31.25
29.29
27.08
24.64
22.03
19.28
16.36
13.15
9.57
5.53
1.10
-3.57
-8.27
-12.78
-16.97
-20.77
-24.24
-27.54
-30.94
-34.79
-39.36
-44.71
-50.50
-55.97
-60.03
-61.54
-59.55
-53.72
-44.42
-32.69
-19.99
-7.80
2.76
11.13
17.29
21.61
24.59
26.68
28.21
29.39
30.28
30.88
31.12
30.94
30.37
29.48
28.45
27.43
26.47
25.50
24.40
23.04
21.38
19.46
17.35
15.11
12.72
10.13
7.30
4.23
0.93
-2.56
-6.20
-9.94
-13.68
-17.33
-20.81
-24.14
-27.46
-30.99
-35.00
-39.51
-44.24
-48.55
-51.50
-52.12
-49.70
-44.03
-35.56
-25.23
-14.30
-3.94
4.98
12.07
17.36
21.13
23.70
25.35
26.21
26.39
26.05
25.41
24.70
24.04
23.39
22.61
21.52
20.09
18.41
16.72
15.22
13.96
12.79
11.45
9.71
7.37
4.44
1.00
-2.77
-6.65
-10.45
-13.98
-17.20
-20.18
-23.15
-26.41
-30.27
-34.93
-40.34
-46.09
-51.39
-55.13
-56.16
-53.68
-47.50
-38.22
-27.00
-15.29
-4.32
5.13
12.79
18.71
23.05
26.00
27.75
28.59
28.87
28.92
28.96
28.94
28.68
27.96
26.67
24.84
22.67
20.42
18.35
16.65
15.35
14.28
13.08
11.29
8.54
4.75
0.15
-4.80
-9.60
-13.97
-17.83
-21.36
-24.83
-28.57
-32.90
-38.07
-44.11
-50.67
-56.90
-61.55
-63.31
-61.20
-54.98
-45.20
-33.10
-20.17
-7.75
3.21
12.24
19.31
24.65
28.60
31.48
33.55
35.02
36.07
36.75
37.10
37.08
36.56
35.45
33.74
31.51
28.99
26.41
24.00
21.85
19.91
18.01
15.93
13.44
10.42
6.82
2.70
-1.83
-6.64
-11.61
-16.67
-21.83
-27.15
-32.79
-38.90
-45.49
-52.30
-58.72
-63.76
-66.32
-65.42
-60.57
-51.96
-40.49
-27.53
-14.55
-2.74
7.21
15.17
21.41
26.42
30.62
34.25
37.39
39.97
41.96
43.38
44.29
44.77
44.84
44.46
43.60
42.24
40.43
38.29
35.94
33.43
30.74
27.76
24.33
20.29
15.56
10.16
4.31
-1.66
-7.39
-12.63
-17.30
-21.55
-25.66
-30.00
-34.93
-40.72
-47.46
-54.97
-62.62
-69.44
-74.11
-75.40
-72.40
-64.90
-53.46
-39.29
-23.98
-9.07
4.22
15.23
23.88
30.51
35.66
39.78
43.11
45.69
47.46
48.46
48.79
48.65
48.14
47.25
45.89
44.04
41.76
39.25
36.72
34.33
32.09
29.94
27.74
25.30
22.39
18.77
14.28
8.91
2.87
-3.44
-9.56
-15.14
-19.99
-24.18
-27.98
-31.79
-36.03
-41.12
-47.29
-54.42
-61.88
-68.48
-72.72
-73.13
-68.74
-59.52
-46.36
-30.89
-15.00
-0.34
12.06
21.85
29.19
34.48
38.16
40.55
41.89
42.44
42.41
42.00
41.40
40.64
39.73
38.58
37.12
35.32
33.19
30.80
28.30
25.84
23.55
21.38
19.13
16.48
13.13
8.97
4.15
-0.98
-6.07
-10.93
-15.65
-20.53
-25.94
-32.16
-39.31
-47.24
-55.51
-63.36
-69.70
-73.21
-72.71
-67.53
-57.83
-44.63
-29.55
-14.36
-0.48
11.31
20.83
28.29
34.00
38.20
41.00
42.51
42.91
42.50
41.59
40.51
39.42
38.34
37.14
35.69
33.89
31.78
29.50
27.21
25.01
22.80
20.31
17.17
13.12
8.12
2.40
-3.61
-9.44
-14.77
-19.54
-23.93
-28.30
-33.06
-38.60
-45.14
-52.65
-60.65
-68.24
-74.04
-76.60
-74.73
-67.99
-56.81
-42.48
-26.72
-11.23
2.69
14.42
23.87
31.37
37.34
42.13
45.90
48.68
50.43
51.21
51.17
50.52
49.39
47.80
45.68
42.97
39.78
36.40
33.25
30.64
28.62
26.94
25.16
22.77
19.42
14.98
9.53
3.37
-3.09
-9.43
-15.33
-20.68
-25.70
-30.79
-36.49
-43.13
-50.75
-58.88
-66.62
-72.65
-75.62
-74.42
-68.52
-58.21
-44.55
-29.11
-13.53
0.84
13.26
23.58
31.99
38.81
44.25
48.38
51.19
52.73
53.16
52.76
51.82
50.55
49.02
47.20
45.04
42.55
39.90
37.33
35.01
32.95
30.97
28.76
26.00
22.52
18.26
13.28
7.70
1.67
-4.59
-10.76
-16.50
-21.64
-26.23
-30.64
-35.42
-41.05
-47.70
-55.03
-62.19
-67.90
-70.79
-69.77
-64.30
-54.66
-41.86
-27.44
-12.95
0.33
11.71
21.04
28.47
34.23
38.51
41.38
42.92
43.31
42.90
42.05
41.10
40.21
39.28
38.11
36.50
34.39
31.91
29.32
26.86
24.59
22.40
20.03
17.18
13.65
9.40
4.51
-0.78
-6.15
-11.27
-15.89
-19.97
-23.75
-27.71
-32.42
-38.31
-45.41
-53.27
-60.80
-66.50
-68.73
-66.18
-58.29
-45.56
-29.48
-12.15
4.40
18.75
30.28
39.07
45.49
49.92
52.56
53.55
53.12
51.67
49.73
47.74
45.95
44.30
42.57
40.50
37.92
34.86
31.50
28.11
24.93
22.06
19.35
16.50
13.16
9.08
4.24
-1.14
-6.68
-11.96
-16.70
-20.82
-24.45
-27.92
-31.62
-35.92
-41.06
-47.07
-53.73
-60.42
-66.15
-69.69
-69.81
-65.70
-57.29
-45.44
-31.69
-17.82
-5.33
4.98
13.01
19.13
23.90
27.76
30.93
33.49
35.40
36.63
37.19
37.08
36.36
35.14
33.53
31.68
29.68
27.63
25.60
23.66
21.87
20.22
18.55
16.63
14.13
10.83
6.65
1.72
-3.67
-9.15
-14.38
-19.13
-23.30
-26.95
-30.29
-33.67
-37.50
-42.15
-47.78
-54.20
-60.72
-66.23
-69.41
-69.08
-64.59
-56.06
-44.28
-30.58
-16.38
-2.90
9.01
18.91
26.66
32.27
35.88
37.73
38.08
37.28
35.63
33.48
31.15
28.93
27.09
25.76
24.91
24.35
23.79
22.95
21.66
19.89
17.72
15.30
12.80
10.39
8.13
5.95
3.66
0.95
-2.45
-6.67
-11.54
-16.73
-21.77
-26.36
-30.33
-33.81
-37.15
-40.80
-45.15
-50.41
-56.35
-62.24
-66.89
-69.00
-67.46
-61.81
-52.36
-40.14
-26.61
-13.26
-1.26
8.71
16.48
22.27
26.50
29.61
31.93
33.62
34.76
35.37
35.49
35.19
34.56
33.67
32.56
31.27
29.83
28.25
26.54
24.67
22.65
20.44
18.04
15.42
12.51
9.24
5.55
1.47
-2.90
-7.34
-11.67
-15.79
-19.70
-23.51
-27.45
-31.79
-36.82
-42.69
-49.29
-56.12
-62.29
-66.60
-67.84
-65.15
-58.28
-47.76
-34.74
-20.77
-7.35
4.40
13.88
21.08
26.40
30.37
33.43
35.80
37.52
38.47
38.64
38.14
37.26
36.29
35.45
34.76
34.09
33.22
31.98
30.31
28.25
25.90
23.29
20.44
17.30
13.89
10.19
6.28
2.18
-2.10
-6.56
-11.22
-16.00
-20.78
-25.47
-29.99
-34.44
-39.02
-44.03
-49.72
-56.11
-62.79
-68.95
-73.37
-74.71
-71.94
-64.63
-53.29
-39.15
-23.93
-9.28
3.61
14.18
22.48
28.88
33.83
37.70
40.75
43.13
44.92
46.17
46.82
46.81
46.10
44.76
43.00
41.12
39.37
37.89
36.61
35.24
33.44
30.93
27.63
23.70
19.48
15.32
11.40
7.68
3.92
-0.11
-4.53
-9.24
-13.98
-18.55
-22.85
-26.98
-31.15
-35.58
-40.49
-46.06
-52.37
-59.32
-66.44
-72.82
-77.20
-78.28
-75.09
-67.39
-55.72
-41.32
-25.78
-10.64
2.91
14.20
23.04
29.62
34.39
37.88
40.55
42.70
44.44
45.74
46.55
46.84
46.66
46.10
45.23
44.10
42.71
41.08
39.23
37.17
34.86
32.21
29.15
25.61
21.60
17.26
12.68
7.94
2.98
-2.27
-7.85
-13.63
-19.37
-24.79
-29.74
-34.30
-38.69
-43.32
-48.54
-54.46
-60.83
-66.91
-71.55
-73.41
-71.30
-64.61
-53.55
-39.19
-23.20
-7.36
6.86
18.64
27.75
34.45
39.18
42.38
44.33
45.25
45.32
44.71
43.63
42.32
40.94
39.55
38.16
36.66
34.95
33.05
31.04
29.10
27.34
25.65
23.73
21.10
17.33
12.28
6.18
-0.40
-6.75
-12.34
-17.00
-20.91
-24.45
-28.12
-32.34
-37.45
-43.71
-51.13
-59.28
-67.19
-73.33
-76.02
-73.93
-66.58
-54.53
-39.26
-22.69
-6.71
7.23
18.42
26.80
32.84
37.24
40.67
43.51
45.79
47.34
47.98
47.67
46.56
44.95
43.06
41.02
38.81
36.46
34.03
31.70
29.61
27.80
26.09
24.15
21.59
18.09
13.55
8.13
2.17
-3.89
-9.67
-14.94
-19.67
-24.04
-28.34
-32.86
-37.93
-43.77
-50.51
-58.00
-65.76
-72.82
-77.83
-79.37
-76.29
-68.18
-55.57
-39.85
-22.95
-6.75
7.37
18.78
27.58
34.26
39.37
43.34
46.39
48.58
49.94
50.56
50.51
49.85
48.63
46.90
44.73
42.31
39.87
37.63
35.65
33.89
32.13
30.09
27.53
24.35
20.58
16.31
11.64
6.66
1.38
-4.16
-9.86
-15.57
-21.09
-26.32
-31.31
-36.30
-41.65
-47.70
-54.53
-61.90
-69.09
-74.99
-78.27
-77.75
-72.68
-63.06
-49.70
-34.05
-17.85
-2.68
10.37
20.85
28.87
34.84
39.27
42.56
44.96
46.55
47.38
47.43
46.77
45.45
43.64
41.56
39.43
37.48
35.83
34.48
33.25
31.88
30.07
27.60
24.41
20.58
16.34
11.94
7.55
3.24
-1.04
-5.43
-10.04
-14.91
-20.00
-25.18
-30.29
-35.23
-40.09
-45.11
-50.63
-56.81
-63.32
-69.24
-73.14
-73.54
-69.42
-60.69
-48.25
-33.66
-18.63
-4.52
7.89
18.32
26.78
33.30
37.90
40.63
41.63
41.30
40.11
38.53
36.94
35.50
34.24
33.10
32.01
30.95
29.90
28.84
27.68
26.29
24.47
21.99
18.68
14.47
9.51
4.07
-1.45
-6.70
-11.49
-15.82
-19.89
-24.00
-28.51
-33.70
-39.78
-46.72
-54.13
-61.20
-66.71
-69.30
-67.80
-61.71
-51.41
-38.06
-23.35
-8.95
3.83
14.33
22.45
28.48
32.77
35.69
37.44
38.19
38.14
37.55
36.66
35.65
34.52
33.17
31.46
29.36
27.03
24.72
22.65
20.85
19.08
16.87
13.77
9.50
4.09
-2.11
-8.55
-14.70
-20.17
-24.88
-29.09
-33.32
-38.17
-44.15
-51.39
-59.46
-67.41
-73.82
-77.19
-76.34
-70.78
-60.81
-47.58
-32.70
-17.90
-4.60
6.44
15.14
21.90
27.39
32.16
36.48
40.34
43.50
45.65
46.58
46.16
44.38
41.44
37.75
33.82
30.26
27.54
25.80
24.81
24.04
22.82
20.58
16.92
11.81
5.51
-1.42
-8.27
-14.41
-19.49
-23.63
-27.42
-31.69
-37.14
-44.04
-51.99
-59.98
-66.55
-70.14
-69.58
-64.32
-54.73
-41.92
-27.50
-13.07
0.19
11.72
21.43
29.52
36.19
41.58
45.78
48.97
51.37
53.15
54.38
54.95
54.70
53.52
51.39
48.50
45.13
41.60
38.26
35.40
33.09
31.16
29.21
26.68
23.15
18.53
13.03
7.11
1.25
-4.29
-9.51
-14.60
-19.83
-25.51
-31.88
-39.02
-46.71
-54.35
-60.92
-65.17
-65.95
-62.58
-55.11
-44.30
-31.47
-18.04
-5.19
6.36
16.42
25.13
32.75
39.44
45.14
49.66
52.79
54.42
54.68
53.83
52.25
50.29
48.17
46.01
43.86
41.71
39.60
37.50
35.38
33.16
30.69
27.81
24.39
20.41
15.92
11.14
6.32
1.66
-2.76
-7.00
-11.28
-15.82
-20.82
-26.39
-32.54
-39.15
-45.88
-52.17
-57.20
-60.03
-59.82
-56.08
-48.88
-38.87
-27.10
-14.80
-3.02
7.49
16.39
23.58
29.11
33.07
35.55
36.75
36.93
36.51
35.85
35.19
34.61
34.00
33.20
32.07
30.55
28.65
26.42
23.98
21.44
18.93
16.50
14.04
11.36
8.25
4.58
0.37
-4.34
-9.51
-15.14
-21.17
-27.44
-33.58
-39.18
-43.95
-47.84
-50.97
-53.41
-54.93
-55.05
-53.10
-48.64
-41.69
-32.80
-22.84
-12.74
-3.20
5.44
13.09
19.80
25.61
30.41
34.02
36.33
37.37
37.35
36.61
35.48
34.20
32.85
31.44
29.95
28.45
26.97
25.52
24.00
22.22
20.05
17.47
14.62
11.69
8.81
5.99
3.02
-0.34
-4.27
-8.74
-13.50
-18.21
-22.50
-26.21
-29.41
-32.39
-35.57
-39.33
-43.88
-49.06
-54.35
-58.91
-61.74
-61.93
-58.96
-52.86
-44.27
-34.22
-23.84
-14.04
-5.28
2.36
9.05
14.97
20.23
24.76
28.48
31.33
33.38
34.73
35.46
35.58
35.01
33.69
31.71
29.29
26.79
24.60
23.00
22.03
21.48
20.95
19.95
18.12
15.30
11.61
7.40
3.11
-0.86
-4.33
-7.31
-9.98
-12.58
-15.35
-18.40
-21.75
-25.27
-28.83
-32.33
-35.73
-39.18
-42.89
-47.15
-52.06
-57.49
-62.94
-67.59
-70.50
-70.82
-68.05
-62.26
-54.05
-44.39
-34.34
-24.77
-16.14
-8.52
-1.71
4.57
10.47
15.95
20.81
24.80
27.74
29.59
30.49
30.62
30.20
29.38
28.35
27.25
26.28
25.54
25.03
24.61
24.03
23.04
21.48
19.34
16.78
13.97
11.06
8.11
5.11
2.03
-1.15
-4.43
-7.83
-11.35
-15.01
-18.76
-22.53
-26.29
-30.06
-33.96
-38.17
-42.86
-48.05
-53.56
-58.98
-63.71
-67.02
-68.21
-66.63
-61.94
-54.21
-44.02
-32.36
-20.41
-9.20
0.63
8.88
15.70
21.37
26.14
30.16
33.47
36.09
37.99
39.14
39.53
39.22
38.35
37.17
35.95
34.92
34.12
33.52
32.97
32.32
31.36
29.93
27.86
25.08
21.63
17.76
13.79
10.04
6.67
3.64
0.67
-2.53
-6.20
-10.32
-14.72
-19.10
-23.23
-27.08
-30.89
-35.03
-39.89
-45.64
-52.09
-58.66
-64.45
-68.38
-69.44
-66.91
-60.62
-51.01
-39.09
-26.15
-13.46
-1.95
7.94
16.23
23.17
29.11
34.29
38.79
42.51
45.29
46.99
47.57
47.17
46.14
44.88
43.75
42.88
42.25
41.68
41.01
40.12
38.93
37.37
35.29
32.55
29.12
25.19
21.07
17.10
13.44
10.02
6.54
2.62
-2.00
-7.32
-13.02
-18.56
-23.38
-27.05
-29.53
-31.15
-32.55
-34.54
-37.82
-42.73
-49.20
-56.61
-63.89
-69.68
-72.57
-71.46
-65.87
-56.17
-43.48
-29.44
-15.68
-3.45
6.61
14.51
20.68
25.66
29.92
33.71
37.09
39.99
42.31
43.97
44.97
45.30
45.00
44.14
42.81
41.16
39.42
37.85
36.63
35.78
35.12
34.25
32.75
30.36
27.07
23.11
18.88
14.75
10.95
7.56
4.51
1.60
-1.39
-4.66
-8.37
-12.56
-17.15
-21.93
-26.66
-31.19
-35.53
-39.82
-44.33
-49.26
-54.68
-60.36
-65.70
-69.82
-71.60
-70.05
-64.60
-55.34
-43.08
-29.19
-15.20
-2.39
8.46
17.10
23.73
28.67
32.29
34.87
36.62
37.73
38.38
38.72
38.85
38.82
38.62
38.25
37.74
37.10
36.37
35.52
34.49
33.15
31.41
29.22
26.53
23.43
20.01
16.42
12.75
9.01
5.11
0.94
-3.58
-8.42
-13.37
-18.18
-22.62
-26.61
-30.26
-33.85
-37.74
-42.26
-47.61
-53.70
-60.03
-65.70
-69.47
-70.06
-66.56
-58.78
-47.40
-33.77
-19.55
-6.23
5.25
14.53
21.79
27.41
31.84
35.35
38.13
40.30
41.97
43.22
44.07
44.45
44.20
43.19
41.48
39.36
37.30
35.71
34.79
34.31
33.78
32.59
30.34
26.99
22.82
18.30
13.90
9.83
6.12
2.56
-1.12
-5.15
-9.64
-14.56
-19.70
-24.85
-29.81
-34.55
-39.24
-44.17
-49.65
-55.83
-62.59
-69.40
-75.39
-79.40
-80.30
-77.28
-70.10
-59.28
-45.93
-31.49
-17.30
-4.32
7.02
16.65
24.73
31.40
36.76
40.90
43.93
46.06
47.48
48.32
48.62
48.36
47.55
46.28
44.72
43.08
41.51
40.09
38.74
37.31
35.57
33.35
30.55
27.22
23.49
19.55
15.48
11.28
6.81
1.96
-3.31
-8.89
-14.50
-19.80
-24.53
-28.61
-32.19
-35.67
-39.55
-44.32
-50.31
-57.51
-65.52
-73.45
-80.05
-83.88
-83.60
-78.41
-68.32
-54.30
-38.02
-21.45
-6.33
6.33
16.28
23.93
29.94
34.90
39.16
42.80
45.78
48.02
49.52
50.28
50.38
49.86
48.78
47.19
45.25
43.16
41.14
39.37
37.90
36.57
35.08
33.09
30.31
26.65
22.24
17.32
12.12
6.78
1.40
-3.98
-9.21
-14.15
-18.63
-22.64
-26.33
-30.07
-34.30
-39.47
-45.80
-53.16
-60.90
-67.90
-72.65
-73.73
-70.12
-61.67
-49.19
-34.25
-18.74
-4.31
8.01
17.87
25.48
31.33
35.86
39.37
42.00
43.78
44.73
44.90
44.41
43.43
42.15
40.72
39.30
37.94
36.63
35.30
33.84
32.14
30.11
27.67
24.77
21.35
17.38
12.90
8.03
2.98
-2.07
-6.95
-11.62
-16.15
-20.62
-25.18
-29.94
-35.04
-40.67
-47.02
-54.05
-61.37
-68.08
-72.87
-74.29
-71.31
-63.60
-51.76
-37.17
-21.57
-6.63
6.49
17.27
25.84
32.64
38.15
42.67
46.26
48.82
50.30
50.73
50.30
49.30
47.93
46.40
44.82
43.24
41.69
40.16
38.52
36.58
34.15
31.10
27.45
23.35
18.99
14.56
10.15
5.72
1.14
-3.72
-8.94
-14.44
-20.08
-25.71
-31.24
-36.69
-42.23
-48.04
-54.23
-60.69
-67.00
-72.37
-75.74
-75.98
-72.23
-64.26
-52.63
-38.64
-23.90
-9.84
2.66
13.38
22.48
30.22
36.69
41.82
45.52
47.82
48.94
49.13
48.65
47.71
46.45
45.05
43.73
42.59
41.58
40.49
39.00
36.89
34.11
30.83
27.27
23.69
20.20
16.75
13.15
9.14
4.47
-0.95
-6.96
-13.23
-19.29
-24.79
-29.59
-33.82
-37.90
-42.33
-47.60
-53.88
-60.92
-67.93
-73.64
-76.62
-75.65
-70.13
-60.32
-47.29
-32.59
-17.84
-4.30
7.28
16.67
24.07
29.77
34.13
37.41
39.77
41.29
42.12
42.44
42.42
42.15
41.55
40.49
38.80
36.48
33.73
30.89
28.29
26.09
24.21
22.36
20.16
17.26
13.45
8.73
3.30
-2.47
-8.15
-13.40
-18.10
-22.36
-26.48
-30.79
-35.59
-41.09
-47.28
-53.94
-60.44
-65.76
-68.58
-67.69
-62.41
-52.90
-40.14
-25.69
-11.17
2.12
13.44
22.57
29.63
34.89
38.57
40.89
42.05
42.29
41.96
41.42
40.91
40.45
39.83
38.73
36.88
34.26
31.13
27.91
24.96
22.44
20.23
18.04
15.50
12.32
8.36
3.63
-1.66
-7.24
-12.79
-18.10
-23.14
-28.07
-33.13
-38.59
-44.61
-51.20
-58.04
-64.50
-69.54
-71.91
-70.50
-64.72
-54.81
-41.84
-27.34
-12.83
0.54
12.15
21.88
29.84
36.25
41.36
45.37
48.46
50.70
52.08
52.58
52.25
51.25
49.80
48.10
46.26
44.27
42.08
39.67
37.05
34.23
31.24
28.14
24.95
21.69
18.27
14.50
10.16
5.12
-0.57
-6.63
-12.64
-18.27
-23.43
-28.22
-32.95
-38.00
-43.68
-50.16
-57.34
-64.72
-71.35
-75.93
-77.09
-73.82
-65.85
-53.77
-38.93
-23.09
-7.90
5.41
16.28
24.77
31.34
36.61
41.04
44.87
48.06
50.45
51.90
52.36
51.91
50.72
48.98
46.84
44.47
42.05
39.77
37.79
36.14
34.70
33.23
31.42
28.99
25.76
21.71
16.97
11.83
6.54
1.31
-3.76
-8.68
-13.48
-18.16
-22.65
-26.91
-30.96
-35.02
-39.44
-44.61
-50.83
-58.07
-65.82
-73.12
-78.63
-80.92
-78.88
-72.11
-61.08
-47.07
-31.82
-17.01
-3.87
7.06
15.77
22.64
28.13
32.63
36.39
39.57
42.18
44.15
45.31
45.52
44.73
43.06
40.83
38.39
36.10
34.14
32.53
31.10
29.64
27.95
25.87
23.35
20.40
17.01
13.25
9.13
4.73
0.16
-4.45
-8.95
-13.24
-17.25
-21.06
-24.77
-28.59
-32.76
-37.56
-43.12
-49.34
-55.79
-61.66
-65.82
-67.14
-64.71
-58.27
-48.26
-35.80
-22.32
-9.25
2.40
12.19
20.15
26.54
31.57
35.33
37.77
38.91
38.94
38.25
37.22
36.12
35.09
34.10
33.13
32.18
31.25
30.27
29.09
27.50
25.36
22.68
19.60
16.35
13.03
9.62
5.97
1.89
-2.63
-7.45
-12.32
-16.98
-21.33
-25.42
-29.44
-33.64
-38.22
-43.26
-48.81
-54.84
-61.16
-67.28
-72.35
-75.17
-74.54
-69.61
-60.29
-47.34
-32.18
-16.41
-1.40
12.02
23.49
32.97
40.44
45.92
49.41
51.08
51.25
50.34
48.72
46.67
44.32
41.76
39.07
36.41
33.87
31.51
29.22
26.89
24.38
21.68
18.86
16.06
13.36
10.78
8.18
5.36
2.07
-1.85
-6.40
-11.40
-16.55
-21.54
-26.08
-30.09
-33.61
-36.88
-40.28
-44.22
-49.08
-54.95
-61.56
-68.14
-73.54
-76.50
-75.93
-71.22
-62.44
-50.35
-36.25
-21.64
-7.93
3.95
13.57
21.01
26.63
30.89
34.18
36.77
38.83
40.45
41.65
42.39
42.57
42.08
40.95
39.31
37.40
35.49
33.76
32.32
31.11
29.98
28.70
27.06
24.84
21.93
18.38
14.33
9.95
5.40
0.77
-3.85
-8.41
-12.84
-17.07
-21.04
-24.80
-28.44
-32.15
-36.18
-40.76
-46.08
-52.13
-58.56
-64.57
-69.03
-70.68
-68.55
-62.28
-52.29
-39.69
-25.97
-12.57
-0.57
9.47
17.45
23.52
27.94
30.97
32.91
34.05
34.71
35.13
35.41
35.51
35.32
34.71
33.72
32.42
30.99
29.56
28.14
26.66
25.00
23.08
20.84
18.29
15.44
12.36
9.06
5.52
1.66
-2.61
-7.34
-12.47
-17.79
-23.02
-27.95
-32.50
-36.86
-41.34
-46.30
-51.84
-57.71
-63.22
-67.33
-68.86
-66.83
-60.74
-50.81
-38.02
-23.78
-9.67
3.13
13.99
22.83
29.86
35.29
39.22
41.69
42.78
42.76
42.03
40.97
39.81
38.67
37.57
36.50
35.46
34.42
33.21
31.66
29.62
27.04
24.04
20.82
17.49
14.11
10.62
6.88
2.77
-1.78
-6.75
-11.95
-17.19
-22.28
-27.14
-31.86
-36.69
-41.88
-47.63
-53.93
-60.53
-66.89
-72.17
-75.29
-75.19
-71.04
-62.68
-50.67
-36.29
-21.08
-6.47
6.54
17.52
26.45
33.47
38.77
42.54
44.97
46.28
46.76
46.70
46.39
46.01
45.61
45.11
44.32
43.02
41.11
38.63
35.78
32.84
29.99
27.24
24.51
21.65
18.52
15.01
11.01
6.41
1.15
-4.72
-10.93
-17.12
-22.94
-28.24
-33.11
-37.88
-43.03
-48.93
-55.74
-63.19
-70.52
-76.53
-79.79
-79.07
-73.70
-63.89
-50.62
-35.43
-19.94
-5.50
7.08
17.51
25.92
32.62
37.96
42.18
45.42
47.72
49.15
49.80
49.78
49.20
48.17
46.74
44.99
43.07
41.12
39.23
37.38
35.41
33.11
30.37
27.19
23.66
19.89
15.84
11.40
6.47
1.04
-4.67
-10.37
-15.79
-20.75
-25.32
-29.73
-34.25
-39.19
-44.76
-51.10
-58.13
-65.42
-72.12
-76.98
-78.64
-75.98
-68.60
-57.02
-42.56
-26.99
-11.99
1.27
12.29
21.12
28.13
33.70
38.10
41.47
43.95
45.67
46.75
47.21
47.00
46.00
44.21
41.76
38.96
36.21
33.80
31.88
30.39
29.09
27.64
25.67
22.86
18.98
14.05
8.29
2.15
-3.89
-9.43
-14.28
-18.51
-22.42
-26.40
-30.89
-36.30
-42.78
-50.14
-57.66
-64.13
-68.06
-68.17
-63.65
-54.55
-41.79
-26.88
-11.54
2.68
14.76
24.27
31.29
36.24
39.60
41.76
43.03
43.61
43.66
43.39
42.90
42.22
41.26
39.86
37.92
35.46
32.72
29.96
27.43
25.14
22.89
20.30
16.97
12.69
7.49
1.63
-4.47
-10.43
-15.95
-21.01
-25.73
-30.37
-35.26
-40.72
-46.99
-54.06
-61.59
-68.79
-74.45
-77.15
-75.71
-69.55
-58.99
-45.24
-29.99
-14.96
-1.43
10.06
19.59
27.59
34.46
40.41
45.34
49.05
51.33
52.16
51.76
50.51
48.85
47.09
45.37
43.67
41.89
39.93
37.73
35.26
32.50
29.34
25.68
21.43
16.59
11.31
5.81
0.32
-4.99
-10.02
-14.78
-19.37
-24.06
-29.20
-35.18
-42.23
-50.32
-59.02
-67.49
-74.63
-79.19
-80.08
-76.57
-68.56
-56.71
-42.34
-27.10
-12.50
0.50
11.62
21.14
29.47
36.89
43.38
48.72
52.66
55.07
55.96
55.49
53.96
51.74
49.25
46.88
44.86
43.17
41.59
39.88
37.86
35.45
32.66
29.46
25.78
21.51
16.58
11.07
5.17
-0.85
-6.73
-12.26
-17.39
-22.23
-27.06
-32.22
-37.99
-44.54
-51.80
-59.51
-67.12
-73.84
-78.63
-80.32
-77.89
-70.91
-59.75
-45.57
-30.02
-14.74
-0.90
11.02
21.05
29.50
36.63
42.55
47.18
50.38
52.04
52.30
51.48
50.09
48.57
47.25
46.16
45.11
43.78
41.96
39.65
37.01
34.25
31.47
28.61
25.41
21.64
17.18
12.09
6.60
1.02
-4.37
-9.43
-14.19
-18.84
-23.60
-28.69
-34.25
-40.37
-47.03
-54.05
-60.92
-66.71
-70.23
-70.29
-66.11
-57.64
-45.65
-31.48
-16.66
-2.50
10.16
20.93
29.79
36.85
42.25
46.09
48.38
49.20
48.71
47.24
45.26
43.27
41.65
40.46
39.53
38.52
37.19
35.42
33.27
30.85
28.22
25.27
21.82
17.74
13.05
7.94
2.72
-2.33
-7.07
-11.51
-15.86
-20.41
-25.45
-31.18
-37.66
-44.83
-52.41
-59.88
-66.41
-70.90
-72.15
-69.22
-61.78
-50.33
-36.17
-20.96
-6.27
6.84
17.96
27.19
34.79
40.97
45.77
49.11
50.98
51.51
50.97
49.72
48.08
46.29
44.47
42.65
40.82
38.92
36.82
34.50
31.85
28.89
25.62
22.11
18.39
14.49
10.39
6.03
1.40
-3.48
-8.55
-13.70
-18.85
-23.94
-28.97
-34.03
-39.22
-44.71
-50.63
-56.95
-63.34
-69.07
-73.04
-74.01
-71.00
-63.66
-52.46
-38.58
-23.57
-8.95
4.14
15.12
23.84
30.50
35.45
39.08
41.71
43.59
44.82
45.38
45.20
44.28
42.70
40.70
38.55
36.52
34.77
33.30
31.95
30.45
28.49
25.87
22.56
18.74
14.69
10.68
6.81
3.02
-0.88
-5.07
-9.61
-14.40
-19.25
-23.98
-28.52
-32.92
-37.33
-41.98
-47.04
-52.56
-58.30
-63.66
-67.79
-69.63
-68.22
-63.04
-54.16
-42.29
-28.65
-14.68
-1.67
9.51
18.44
25.12
29.73
32.55
33.85
33.98
33.31
32.27
31.24
30.41
29.74
29.07
28.24
27.17
25.84
24.32
22.67
20.93
19.07
17.11
15.04
12.83
10.38
7.59
4.35
0.66
-3.40
-7.71
-12.11
-16.45
-20.63
-24.64
-28.56
-32.58
-36.89
-41.68
-46.85
-52.04
-56.55
-59.47
-59.86
-56.96
-50.54
-40.92
-29.05
-16.24
-3.88
6.96
15.69
22.21
26.69
29.46
30.81
31.04
30.49
29.57
28.62
27.85
27.28
26.72
25.95
24.83
23.31
21.48
19.50
17.50
15.57
13.71
11.86
9.86
7.59
4.92
1.76
-1.88
-6.07
-10.78
-15.93
-21.26
-26.46
-31.13
-35.11
-38.51
-41.77
-45.41
-49.79
-54.81
-59.98
-64.39
-66.93
-66.61
-62.75
-55.22
-44.58
-31.93
-18.70
-6.25
4.50
13.20
19.94
25.01
28.73
31.31
32.91
33.75
34.07
34.12
34.04
33.87
33.54
32.99
32.05
30.62
28.62
26.11
23.29
20.50
18.04
15.98
14.12
12.09
9.44
5.96
1.61
-3.44
-8.93
-14.57
-20.08
-25.22
-29.82
-33.90
-37.67
-41.52
-45.91
-51.12
-57.20
-63.71
-69.75
-74.07
-75.32
-72.43
-65.04
-53.68
-39.71
-24.89
-10.88
1.22
10.94
18.40
23.94
27.99
30.89
32.92
34.32
35.33
36.13
36.78
37.25
37.41
37.01
35.85
33.83
31.11
28.06
25.16
22.84
21.21
20.05
18.89
17.21
14.61
10.92
6.20
0.71
-5.14
-10.90
-16.17
-20.75
-24.74
-28.56
-32.73
-37.74
-43.71
-50.42
-57.17
-62.94
-66.45
-66.50
-62.21
-53.42
-40.82
-25.92
-10.56
3.59
15.46
24.68
31.43
36.16
39.31
41.22
42.19
42.47
42.34
42.00
41.58
41.06
40.35
39.24
37.55
35.22
32.42
29.52
26.96
25.04
23.69
22.43
20.58
17.54
13.09
7.48
1.25
-4.98
-10.76
-15.97
-20.74
-25.35
-30.16
-35.48
-41.56
-48.41
-55.73
-62.80
-68.53
-71.63
-70.88
-65.63
-55.93
-42.68
-27.41
-11.84
2.61
15.03
25.15
33.14
39.27
43.81
46.90
48.67
49.32
49.18
48.63
47.97
47.27
46.42
45.20
43.40
40.97
38.06
35.01
32.10
29.49
27.09
24.59
21.61
17.86
13.28
7.98
2.18
-3.86
-9.92
-15.78
-21.30
-26.43
-31.33
-36.32
-41.78
-48.06
-55.22
-62.86
-70.24
-76.22
-79.55
-79.04
-73.98
-64.36
-50.98
-35.29
-19.07
-3.86
9.33
20.17
28.78
35.51
40.74
44.71
47.63
49.65
50.91
51.52
51.51
50.91
49.70
47.94
45.73
43.23
40.61
38.01
35.55
33.22
30.95
28.55
25.80
22.51
18.56
13.93
8.72
3.05
-2.86
-8.80
-14.53
-19.84
-24.68
-29.18
-33.65
-38.52
-44.21
-50.93
-58.57
-66.61
-74.11
-79.77
-82.21
-80.26
-73.31
-61.61
-46.29
-29.11
-11.99
3.45
16.28
26.33
33.97
39.79
44.31
47.85
50.52
52.35
53.36
53.60
53.18
52.17
50.65
48.71
46.52
44.26
42.06
39.96
37.82
35.48
32.77
29.65
26.15
22.37
18.32
13.96
9.18
3.96
-1.64
-7.43
-13.19
-18.75
-24.03
-29.07
-33.99
-39.00
-44.40
-50.48
-57.41
-64.96
-72.36
-78.29
-81.17
-79.58
-72.83
-61.20
-45.95
-28.94
-12.07
3.17
15.95
26.12
33.89
39.67
43.80
46.57
48.16
48.75
48.54
47.74
46.54
45.09
43.49
41.79
40.01
38.19
36.37
34.59
32.83
31.03
29.04
26.67
23.70
19.98
15.41
10.07
4.21
-1.81
-7.58
-12.80
-17.42
-21.63
-25.86
-30.58
-36.17
-42.84
-50.52
-58.77
-66.79
-73.43
-77.32
-77.20
-72.26
-62.47
-48.61
-32.14
-14.85
1.58
15.96
27.69
36.75
43.48
48.36
51.73
53.77
54.56
54.14
52.70
50.56
48.12
45.75
43.69
42.01
40.60
39.24
37.67
35.68
33.16
30.10
26.62
22.85
18.88
14.67
10.12
5.10
-0.39
-6.26
-12.30
-18.29
-24.09
-29.68
-35.18
-40.84
-46.95
-53.76
-61.41
-69.68
-77.92
-84.99
-89.39
-89.66
-84.75
-74.50
-59.69
-41.94
-23.29
-5.61
9.84
22.48
32.42
40.08
45.97
50.51
53.97
56.55
58.34
59.38
59.62
58.98
57.41
54.97
51.92
48.63
45.52
42.90
40.81
39.09
37.34
35.13
32.15
28.29
23.69
18.62
13.33
7.96
2.50
-3.10
-8.88
-14.77
-20.61
-26.25
-31.64
-36.91
-42.28
-48.07
-54.55
-61.85
-69.84
-78.04
-85.49
-90.83
-92.52
-89.29
-80.59
-66.84
-49.46
-30.44
-11.75
5.07
19.23
30.59
39.36
45.91
50.60
53.71
55.57
56.42
56.51
55.99
54.95
53.48
51.66
49.64
47.56
45.51
43.48
41.37
39.06
36.44
33.49
30.26
26.84
23.28
19.57
15.63
11.36
6.66
1.43
-4.36
-10.61
-17.18
-23.74
-29.95
-35.54
-40.49
-45.09
-49.92
-55.57
-62.35
-70.01
-77.63
-83.72
-86.62
-84.90
-77.84
-65.62
-49.45
-31.15
-12.80
3.84
17.65
28.30
36.08
41.56
45.31
47.71
48.96
49.16
48.50
47.27
45.78
44.31
42.91
41.50
39.89
37.91
35.49
32.75
29.90
27.14
24.56
22.08
19.48
16.45
12.73
8.14
2.74
-3.25
-9.47
-15.56
-21.26
-26.50
-31.38
-36.18
-41.24
-46.94
-53.52
-60.94
-68.67
-75.67
-80.48
-81.53
-77.66
-68.52
-54.80
-38.03
-20.19
-3.11
11.85
24.04
33.31
39.86
44.07
46.34
47.11
46.85
46.01
44.93
43.80
42.61
41.26
39.61
37.56
35.14
32.51
29.88
27.44
25.25
23.19
20.90
17.91
13.80
8.41
1.93
-5.06
-11.85
-17.79
-22.59
-26.35
-29.52
-32.73
-36.62
-41.66
-48.09
-55.83
-64.30
-72.44
-78.71
-81.41
-79.13
-71.28
-58.32
-41.78
-23.74
-6.32
8.97
21.42
31.06
38.35
43.83
47.93
50.93
52.97
54.26
54.94
55.12
54.84
54.06
52.70
50.78
48.35
45.56
42.54
39.47
36.45
33.54
30.75
27.92
24.83
21.19
16.78
11.53
5.55
-0.92
-7.57
-14.16
-20.50
-26.44
-31.93
-37.07
-42.12
-47.54
-53.82
-61.22
-69.49
-77.75
-84.58
-88.27
-87.43
-81.37
-70.32
-55.44
-38.42
-21.08
-4.94
9.07
20.62
29.83
37.10
42.88
47.53
51.29
54.24
56.36
57.61
57.93
57.32
55.86
53.73
51.18
48.54
46.08
43.96
42.17
40.48
38.54
36.02
32.71
28.63
23.97
18.93
13.66
8.19
2.52
-3.30
-9.14
-14.82
-20.19
-25.27
-30.13
-34.94
-39.88
-45.16
-51.07
-57.82
-65.38
-73.25
-80.27
-84.88
-85.51
-81.13
-71.65
-58.01
-41.84
-25.00
-9.08
4.92
16.65
26.21
33.94
40.20
45.22
49.12
51.93
53.62
54.25
53.89
52.69
50.83
48.55
46.05
43.63
41.53
39.87
38.62
37.52
36.18
34.20
31.33
27.57
23.09
18.20
13.17
8.15
3.17
-1.77
-6.72
-11.65
-16.51
-21.25
-25.87
-30.46
-35.22
-40.37
-46.13
-52.59
-59.51
-66.31
-72.02
-75.46
-75.48
-71.34
-62.93
-50.90
-36.50
-21.33
-6.89
5.80
16.30
24.68
31.30
36.55
40.58
43.35
44.80
44.97
44.13
42.74
41.22
39.88
38.74
37.67
36.45
35.00
33.35
31.65
29.97
28.25
26.29
23.77
20.51
16.48
11.86
6.92
1.90
-3.07
-7.94
-12.72
-17.39
-21.90
-26.26
-30.55
-35.04
-40.05
-45.86
-52.51
-59.56
-66.12
-70.94
-72.72
-70.53
-64.06
-53.80
-40.89
-26.79
-12.85
-0.14
10.74
19.62
26.55
31.79
35.58
38.20
39.85
40.71
40.89
40.47
39.58
38.33
36.83
35.14
33.32
31.37
29.34
27.26
25.17
23.08
20.95
18.67
16.06
12.91
9.05
4.43
-0.78
-6.26
-11.63
-16.62
-21.20
-25.58
-30.09
-35.05
-40.60
-46.75
-53.34
-60.06
-66.36
-71.39
-74.03
-73.21
-68.30
-59.33
-47.18
-33.21
-18.90
-5.43
6.46
16.47
24.64
31.09
36.03
39.71
42.37
44.19
45.24
45.55
45.14
44.12
42.70
41.09
39.48
37.91
36.29
34.47
32.37
29.93
27.15
24.04
20.70
17.21
13.61
9.86
5.83
1.34
-3.75
-9.39
-15.32
-21.16
-26.57
-31.38
-35.70
-39.88
-44.38
-49.63
-55.80
-62.74
-69.87
-76.16
-80.31
-81.04
-77.46
-69.43
-57.60
-43.32
-28.22
-13.84
-1.17
9.38
18.01
25.21
31.44
36.96
41.73
45.59
48.40
50.15
50.97
50.98
50.27
48.81
46.66
43.99
41.14
38.60
36.66
35.30
34.20
32.82
30.71
27.64
23.71
19.25
14.60
10.03
5.60
1.22
-3.30
-8.12
-13.21
-18.39
-23.41
-28.03
-32.23
-36.19
-40.27
-44.87
-50.35
-56.81
-64.11
-71.72
-78.71
-83.87
-85.85
-83.64
-76.81
-65.77
-51.68
-36.12
-20.68
-6.49
5.85
16.26
25.01
32.43
38.79
44.16
48.46
51.57
53.43
54.14
53.87
52.90
51.44
49.63
47.57
45.38
43.27
41.43
39.97
38.80
37.55
35.75
32.94
28.96
24.00
18.53
13.18
8.41
4.36
0.83
-2.65
-6.52
-11.05
-16.22
-21.75
-27.29
-32.58
-37.49
-42.09
-46.51
-51.01
-55.87
-61.38
-67.67
-74.48
-80.99
-85.84
-87.47
-84.56
-76.60
-64.04
-48.26
-31.07
-14.26
0.85
13.55
23.70
31.52
37.36
41.61
44.59
46.58
47.85
48.62
48.99
48.95
48.41
47.29
45.65
43.69
41.71
39.98
38.62
37.52
36.45
35.06
33.06
30.28
26.69
22.40
17.64
12.67
7.70
2.85
-1.92
-6.74
-11.71
-16.83
-22.03
-27.19
-32.26
-37.33
-42.63
-48.47
-55.07
-62.39
-69.97
-76.81
-81.51
-82.57
-78.85
-70.01
-56.73
-40.56
-23.43
-7.15
7.11
18.85
28.14
35.32
40.70
44.53
46.97
48.23
48.51
48.05
47.04
45.65
43.99
42.25
40.65
39.36
38.44
37.76
37.01
35.81
33.90
31.16
27.72
23.84
19.75
15.54
11.11
6.26
0.85
-5.08
-11.25
-17.24
-22.71
-27.55
-31.96
-36.42
-41.43
-47.37
-54.36
-62.18
-70.23
-77.58
-83.03
-85.28
-83.19
-76.14
-64.29
-48.66
-30.91
-12.95
3.54
17.47
28.50
36.89
43.20
47.97
51.60
54.21
55.81
56.42
56.12
55.11
53.63
51.88
50.01
48.11
46.25
44.45
42.65
40.71
38.43
35.60
32.09
27.88
23.12
18.01
12.75
7.51
2.30
-2.93
-8.28
-13.81
-19.51
-25.26
-30.91
-36.38
-41.73
-47.18
-53.09
-59.78
-67.32
-75.37
-83.00
-88.82
-91.22
-88.87
-81.10
-68.27
-51.65
-33.17
-14.82
1.85
15.95
27.28
36.10
42.84
47.88
51.55
54.08
55.70
56.65
57.09
57.12
56.73
55.81
54.32
52.27
49.82
47.20
44.61
42.12
39.61
36.85
33.60
29.72
25.18
20.06
14.46
8.47
2.17
-4.33
-10.83
-17.10
-22.95
-28.35
-33.48
-38.69
-44.35
-50.75
-58.00
-65.92
-74.03
-81.51
-87.19
-89.77
-88.07
-81.35
-69.67
-53.97
-35.85
-17.24
0.16
15.18
27.33
36.72
43.78
49.06
53.00
55.94
58.03
59.35
59.85
59.50
58.29
56.32
53.83
51.10
48.35
45.68
43.06
40.39
37.61
34.69
31.63
28.37
24.77
20.71
16.11
10.99
5.46
-0.35
-6.37
-12.54
-18.78
-24.90
-30.66
-35.92
-40.81
-45.76
-51.41
-58.22
-66.22
-74.69
-82.26
-87.13
-87.66
-82.79
-72.44
-57.64
-40.19
-22.18
-5.40
9.02
20.73
29.94
37.02
42.32
46.02
48.35
49.59
50.11
50.26
50.23
49.92
49.08
47.48
45.05
42.00
38.68
35.45
32.62
30.26
28.26
26.32
24.02
20.94
16.80
11.53
5.32
-1.39
-8.12
-14.46
-20.15
-25.21
-29.91
-34.71
-40.16
-46.71
-54.46
-62.98
-71.15
-77.43
-80.20
-78.27
-71.26
-59.73
-45.00
-28.72
-12.53
2.31
15.06
25.42
33.47
39.52
43.94
47.04
49.05
50.07
50.18
49.49
48.14
46.32
44.13
41.63
38.82
35.79
32.75
29.92
27.46
25.31
23.17
20.55
16.99
12.23
6.31
-0.41
-7.41
-14.20
-20.42
-26.02
-31.19
-36.38
-42.10
-48.84
-56.77
-65.51
-74.11
-81.11
-84.87
-84.02
-77.93
-66.94
-52.32
-35.88
-19.43
-4.30
8.86
20.01
29.44
37.40
43.96
49.03
52.52
54.48
55.21
55.09
54.42
53.30
51.63
49.26
46.19
42.62
38.92
35.44
32.38
29.70
27.15
24.39
21.07
16.87
11.65
5.45
-1.45
-8.59
-15.48
-21.82
-27.63
-33.26
-39.21
-45.95
-53.68
-62.22
-70.92
-78.72
-84.30
-86.31
-83.74
-76.19
-64.14
-48.80
-31.85
-14.91
0.82
14.68
26.53
36.54
44.89
51.73
57.09
60.96
63.35
64.33
64.07
62.82
60.81
58.22
55.11
51.52
47.48
43.18
38.88
34.80
31.03
27.40
23.61
19.40
14.67
9.49
4.14
-1.16
-6.25
-11.13
-15.87
-20.61
-25.54
-30.89
-36.96
-44.08
-52.42
-61.76
-71.31
-79.74
-85.36
-86.56
-82.32
-72.65
-58.51
-41.68
-24.06
-7.28
7.70
20.57
31.42
40.49
47.92
53.80
58.13
60.97
62.46
62.76
62.06
60.53
58.37
55.77
52.97
50.11
47.33
44.60
41.88
39.08
36.09
32.77
28.97
24.58
19.49
13.76
7.58
1.23
-4.98
-10.82
-16.23
-21.36
-26.46
-31.82
-37.77
-44.54
-52.18
-60.50
-68.86
-76.21
-81.14
-82.24
-78.53
-69.75
-56.60
-40.53
-23.36
-6.78
8.01
20.46
30.54
38.52
44.69
49.25
52.33
54.02
54.49
54.03
52.96
51.54
49.90
48.05
45.94
43.53
40.87
38.08
35.31
32.68
30.16
27.53
24.45
20.52
15.47
9.27
2.21
-5.18
-12.27
-18.59
-23.91
-28.33
-32.31
-36.47
-41.47
-47.81
-55.58
-64.26
-72.68
-79.20
-82.08
-80.00
-72.51
-60.17
-44.49
-27.34
-10.54
4.69
17.74
28.52
37.23
44.09
49.27
52.90
55.13
56.12
56.07
55.16
53.52
51.31
48.74
46.05
43.42
40.95
38.60
36.25
33.75
31.02
28.00
24.67
20.96
16.80
12.15
6.99
1.41
-4.45
-10.39
-16.24
-21.90
-27.33
-32.59
-37.83
-43.23
-49.02
-55.36
-62.32
-69.62
-76.60
-82.16
-84.96
-83.70
-77.67
-66.97
-52.59
-36.15
-19.44
-3.94
9.45
20.49
29.38
36.51
42.23
46.70
49.97
52.03
52.92
52.71
51.58
49.73
47.39
44.80
42.19
39.75
37.57
35.65
33.86
32.01
29.88
27.27
24.08
20.28
15.89
11.04
5.87
0.52
-4.88
-10.28
-15.62
-20.85
-25.88
-30.64
-35.09
-39.36
-43.74
-48.66
-54.46
-61.20
-68.50
-75.46
-80.75
-82.95
-80.95
-74.31
-63.44
-49.51
-34.08
-18.71
-4.60
7.56
17.55
25.54
31.85
36.85
40.78
43.73
45.61
46.30
45.74
44.09
41.71
39.06
36.53
34.32
32.41
30.65
28.88
26.96
24.80
22.35
19.56
16.42
12.95
9.20
5.25
1.18
-2.99
-7.25
-11.59
-16.05
-20.61
-25.26
-29.93
-34.58
-39.24
-44.09
-49.41
-55.41
-62.09
-68.99
-75.06
-78.93
-79.23
-75.02
-66.10
-53.18
-37.66
-21.32
-5.84
7.58
18.34
26.42
32.11
35.81
37.85
38.48
37.96
36.62
34.85
32.99
31.25
29.73
28.37
27.06
25.72
24.30
22.78
21.13
19.30
17.25
14.91
12.17
8.89
4.97
0.40
-4.69
-10.05
-15.44
-20.67
-25.70
-30.56
-35.34
-40.17
-45.23
-50.75
-56.96
-63.87
-71.08
-77.62
-82.08
-82.94
-79.08
-70.20
-56.94
-40.78
-23.56
-6.98
7.74
19.98
29.67
37.06
42.50
46.32
48.69
49.74
49.56
48.34
46.38
44.05
41.75
39.72
38.03
36.54
34.99
33.19
30.99
28.45
25.62
22.52
19.02
14.89
9.97
4.23
-2.13
-8.76
-15.27
-21.41
-27.13
-32.50
-37.75
-43.15
-49.00
-55.65
-63.34
-72.03
-81.17
-89.53
-95.44
-97.14
-93.34
-83.67
-68.84
-50.47
-30.58
-11.16
6.35
21.14
33.09
42.45
49.65
55.08
59.05
61.75
63.36
64.00
63.82
62.93
61.41
59.37
56.95
54.29
51.50
48.61
45.60
42.44
39.10
35.61
31.95
28.03
23.67
18.66
12.90
6.44
-0.57
-7.92
-15.40
-22.80
-29.98
-36.80
-43.29
-49.62
-56.23
-63.58
-72.00
-81.28
-90.51
-98.13
-102.24
-101.12
-93.83
-80.46
-62.21
-41.04
-19.20
1.37
19.34
34.13
45.69
54.35
60.57
64.81
67.52
69.10
69.84
69.94
69.44
68.28
66.40
63.82
60.73
57.42
54.23
51.33
48.72
46.18
43.37
40.06
36.08
31.46
26.25
20.52
14.28
7.52
0.31
-7.18
-14.68
-21.90
-28.69
-35.04
-41.14
-47.26
-53.78
-61.03
-69.28
-78.44
-87.91
-96.43
-102.24
-103.46
-98.67
-87.43
-70.53
-49.80
-27.59
-6.14
12.89
28.68
41.09
50.44
57.20
61.79
64.60
65.87
65.89
64.93
63.30
61.24
58.90
56.32
53.51
50.54
47.50
44.55
41.80
39.24
36.71
33.94
30.60
26.41
21.18
14.88
7.62
-0.24
-8.25
-15.88
-22.78
-28.83
-34.26
-39.53
-45.21
-51.81
-59.68
-68.81
-78.63
-87.97
-95.07
-97.88
-94.75
-84.91
-68.89
-48.45
-26.06
-4.23
15.05
30.63
42.23
50.18
55.14
57.82
58.87
58.80
58.03
56.84
55.42
53.86
52.06
49.80
46.86
43.16
38.93
34.64
30.84
27.86
25.62
23.59
20.94
16.97
11.27
4.00
-4.26
-12.72
-20.69
-27.77
-34.04
-39.98
-46.26
-53.53
-62.17
-71.99
-82.22
-91.46
-97.83
-99.44
-94.88
-83.71
-66.79
-46.07
-24.09
-3.23
14.89
29.65
41.22
50.13
56.85
61.59
64.39
65.42
64.99
63.61
61.73
59.58
57.08
54.05
50.36
46.12
41.68
37.47
33.82
30.72
27.84
24.57
20.33
14.78
7.95
0.26
-7.73
-15.52
-22.83
-29.68
-36.36
-43.28
-50.89
-59.55
-69.26
-79.49
-89.08
-96.30
-99.26
-96.44
-87.28
-72.38
-53.39
-32.46
-11.70
7.33
23.77
37.41
48.40
56.98
63.34
67.54
69.72
70.20
69.43
67.96
66.18
64.15
61.67
58.45
54.33
49.50
44.42
39.60
35.39
31.73
28.20
24.20
19.17
12.86
5.39
-2.74
-10.87
-18.39
-25.07
-31.13
-37.14
-43.85
-51.80
-61.13
-71.38
-81.50
-89.94
-94.96
-94.99
-89.12
-77.47
-61.22
-42.30
-22.81
-4.44
11.89
25.97
37.97
48.10
56.37
62.64
66.81
68.95
69.33
68.41
66.56
64.12
61.25
58.02
54.47
50.69
46.86
43.21
39.97
37.16
34.55
31.64
27.85
22.71
16.08
8.26
-0.16
-8.43
-15.95
-22.38
-27.85
-32.90
-38.33
-44.98
-53.33
-63.22
-73.70
-83.16
-89.67
-91.54
-87.72
-78.16
-63.72
-46.01
-26.88
-8.09
9.07
23.82
35.88
45.29
52.21
56.84
59.39
60.13
59.47
57.85
55.73
53.36
50.82
48.02
44.91
41.54
38.15
34.99
32.24
29.81
27.40
24.56
20.91
16.26
10.63
4.27
-2.46
-9.17
-15.51
-21.30
-26.56
-31.60
-36.90
-43.04
-50.46
-59.22
-68.82
-78.13
-85.52
-89.20
-87.73
-80.46
-67.82
-51.22
-32.68
-14.24
2.59
16.99
28.83
38.30
45.69
51.14
54.76
56.68
57.21
56.74
55.69
54.30
52.58
50.38
47.56
44.12
40.29
36.45
32.98
30.08
27.67
25.35
22.55
18.71
13.49
6.89
-0.70
-8.64
-16.20
-22.89
-28.59
-33.63
-38.66
-44.41
-51.43
-59.83
-69.16
-78.32
-85.73
-89.65
-88.58
-81.78
-69.57
-53.26
-34.84
-16.36
0.58
15.17
27.31
37.33
45.64
52.46
57.81
61.64
63.95
64.85
64.56
63.32
61.36
58.84
55.95
52.86
49.77
46.93
44.58
42.92
42.01
41.66
41.39
40.49
38.18
33.87
27.36
18.94
9.24
-0.94
-10.94
-20.31
-28.87
-36.66
-43.90
-50.87
-57.96
-65.48
-73.52
-81.74
-89.27
-94.78
-96.77
-93.99
-85.94
-73.04
-56.65
-38.62
-20.82
-4.63
9.35
21.14
31.10
39.65
46.98
53.06
57.77
61.01
62.78
63.17
62.36
60.55
57.96
54.88
51.62
48.50
45.77
43.54
41.73
40.05
38.08
35.42
31.79
27.21
22.00
16.63
11.54
6.90
2.56
-1.88
-6.81
-12.40
-18.46
-24.50
-30.05
-34.87
-39.10
-43.24
-47.93
-53.72
-60.87
-69.14
-77.79
-85.57
-90.94
-92.41
-88.92
-80.26
-67.17
-51.21
-34.26
-18.01
-3.53
8.83
19.29
28.34
36.43
43.85
50.64
56.64
61.57
65.10
66.95
66.98
65.25
62.00
57.61
52.57
47.37
42.50
38.29
34.94
32.38
30.32
28.32
25.93
22.85
19.02
14.57
9.75
4.79
-0.15
-5.02
-9.90
-14.83
-19.85
-24.94
-30.00
-34.86
-39.41
-43.61
-47.58
-51.66
-56.28
-61.83
-68.41
-75.59
-82.37
-87.26
-88.75
-85.72
-77.87
-65.84
-51.07
-35.32
-20.18
-6.78
4.35
13.21
20.10
25.45
29.64
32.95
35.53
37.37
38.42
38.57
37.83
36.31
34.26
32.05
30.00
28.35
27.14
26.26
25.42
24.29
22.59
20.20
17.13
13.54
9.61
5.43
1.04
-3.54
-8.24
-12.90
-17.31
-21.29
-24.81
-28.00
-31.11
-34.46
-38.35
-43.00
-48.55
-54.94
-61.80
-68.37
-73.48
-75.81
-74.21
-68.11
-57.74
-44.20
-29.09
-14.15
-0.78
10.26
18.88
25.46
30.59
34.75
38.15
40.81
42.55
43.27
42.97
41.79
40.02
37.97
35.89
33.93
32.17
30.62
29.23
27.94
26.64
25.13
23.20
20.61
17.22
13.06
8.34
3.38
-1.51
-6.11
-10.44
-14.67
-18.98
-23.48
-28.14
-32.87
-37.62
-42.49
-47.74
-53.70
-60.59
-68.35
-76.49
-84.05
-89.75
-92.20
-90.28
-83.47
-72.07
-57.20
-40.49
-23.72
-8.32
4.87
15.59
24.05
30.64
35.73
39.56
42.32
44.18
45.30
45.86
45.97
45.64
44.85
43.57
41.89
39.98
38.03
36.16
34.27
32.13
29.44
26.02
21.89
17.31
12.64
8.16
3.93
-0.20
-4.50
-9.19
-14.32
-19.72
-25.06
-30.03
-34.43
-38.32
-41.94
-45.71
-50.08
-55.39
-61.71
-68.68
-75.47
-80.78
-83.09
-80.99
-73.61
-60.95
-44.00
-24.56
-4.80
13.32
28.49
40.19
48.69
54.62
58.71
61.52
63.39
64.48
64.81
64.38
63.18
61.24
58.68
55.71
52.57
49.44
46.41
43.47
40.59
37.70
34.75
31.60
28.05
23.90
19.10
13.73
8.08
2.42
-3.11
-8.58
-14.14
-19.86
-25.66
-31.28
-36.52
-41.33
-45.98
-50.91
-56.64
-63.44
-71.21
-79.27
-86.34
-90.77
-90.88
-85.47
-74.23
-57.99
-38.47
-17.91
1.51
18.25
31.55
41.41
48.32
52.93
55.77
57.24
57.61
57.11
56.04
54.66
53.15
51.59
49.88
47.90
45.58
42.93
40.06
37.11
34.20
31.36
28.53
25.53
22.09
17.95
12.99
7.26
1.03
-5.32
-11.44
-17.20
-22.64
-27.95
-33.37
-39.18
-45.62
-52.90
-61.08
-69.80
-78.11
-84.45
-86.99
-84.19
-75.35
-61.00
-42.81
-23.08
-4.07
12.57
26.08
36.44
44.07
49.41
52.80
54.45
54.55
53.39
51.37
48.90
46.24
43.55
40.86
38.16
35.52
33.11
31.12
29.59
28.36
27.01
24.97
21.72
17.00
10.93
3.99
-3.15
-9.87
-15.76
-20.78
-25.19
-29.47
-34.21
-39.98
-47.16
-55.69
-64.93
-73.54
-79.68
-81.40
-77.29
-67.04
-51.56
-32.85
-13.37
4.71
19.97
31.92
40.83
47.33
51.98
55.25
57.33
58.38
58.54
57.94
56.72
54.90
52.46
49.37
45.68
41.61
37.47
33.63
30.32
27.48
24.78
21.68
17.67
12.43
5.99
-1.28
-8.80
-15.99
-22.50
-28.34
-33.91
-39.89
-46.91
-55.29
-64.68
-74.03
-81.70
-85.90
-85.19
-78.92
-67.51
-52.21
-34.82
-17.15
-0.61
13.98
26.35
36.57
44.82
51.19
55.71
58.43
59.53
59.40
58.50
57.23
55.76
53.96
51.56
48.38
44.51
40.32
36.33
32.87
29.97
27.24
24.14
20.16
15.07
9.00
2.34
-4.42
-10.91
-16.94
-22.55
-28.00
-33.68
-39.96
-47.15
-55.30
-63.99
-72.29
-78.82
-81.98
-80.47
-73.66
-61.92
-46.56
-29.43
-12.46
2.96
16.12
26.97
35.83
43.07
48.88
53.34
56.41
58.17
58.78
58.49
57.56
56.20
54.52
52.51
50.18
47.51
44.54
41.33
37.92
34.35
30.60
26.67
22.62
18.51
14.35
10.09
5.57
0.63
-4.78
-10.56
-16.47
-22.22
-27.63
-32.71
-37.57
-42.52
-47.84
-53.84
-60.61
-67.87
-74.84
-80.18
-82.34
-79.98
-72.53
-60.48
-45.19
-28.51
-12.18
2.55
15.08
25.30
33.39
39.68
44.50
48.16
50.96
53.13
54.77
55.86
56.27
55.82
54.45
52.23
49.44
46.49
43.78
41.54
39.74
38.06
36.02
33.23
29.48
24.91
19.91
14.93
10.34
6.25
2.49
-1.28
-5.44
-10.23
-15.60
-21.28
-26.92
-32.18
-36.95
-41.31
-45.54
-50.06
-55.24
-61.25
-67.88
-74.42
-79.70
-82.35
-81.16
-75.53
-65.62
-52.42
-37.42
-22.18
-7.98
4.44
14.82
23.25
29.94
35.14
39.02
41.73
43.46
44.40
44.74
44.60
44.01
42.93
41.35
39.38
37.21
35.07
33.17
31.52
30.00
28.36
26.35
23.77
20.58
16.87
12.86
8.77
4.79
0.97
-2.73
-6.46
-10.38
-14.55
-18.94
-23.36
-27.68
-31.81
-35.87
-40.14
-44.96
-50.52
-56.71
-62.99
-68.39
-71.72
-71.82
-67.92
-59.92
-48.53
-35.04
-21.02
-7.82
3.69
13.19
20.77
26.66
31.04
33.99
35.61
36.07
35.64
34.68
33.46
32.22
31.08
30.13
29.40
28.88
28.42
27.80
26.79
25.25
23.10
20.43
17.36
14.04
10.59
7.05
3.37
-0.57
-4.85
-9.50
-14.38
-19.27
-23.92
-28.25
-32.35
-36.49
-41.03
-46.22
-52.15
-58.52
-64.61
-69.28
-71.22
-69.27
-62.93
-52.53
-39.27
-24.81
-10.83
1.49
11.62
19.65
25.97
30.98
34.95
38.01
40.17
41.45
41.89
41.60
40.67
39.25
37.43
35.34
33.12
30.91
28.86
27.04
25.44
23.91
22.19
20.03
17.28
13.92
10.08
5.94
1.60
-2.90
-7.58
-12.49
-17.56
-22.66
-27.60
-32.27
-36.71
-41.14
-45.92
-51.37
-57.66
-64.53
-71.26
-76.70
-79.43
-78.24
-72.49
-62.37
-48.87
-33.53
-17.98
-3.52
9.03
19.37
27.57
33.85
38.50
41.80
44.05
45.53
46.43
46.89
46.91
46.44
45.42
43.89
41.97
39.88
37.78
35.78
33.85
31.88
29.72
27.24
24.37
21.11
17.49
13.52
9.18
4.43
-0.79
-6.49
-12.56
-18.78
-24.84
-30.41
-35.32
-39.68
-43.88
-48.50
-54.08
-60.82
-68.44
-76.01
-82.19
-85.48
-84.59
-78.83
-68.33
-54.01
-37.36
-20.11
-3.87
10.23
21.66
30.45
36.99
41.86
45.54
48.32
50.25
51.31
51.45
50.78
49.53
47.99
46.40
44.84
43.30
41.71
39.96
37.97
35.66
32.96
29.84
26.35
22.54
18.47
14.14
9.48
4.38
-1.17
-7.03
-12.93
-18.60
-23.86
-28.73
-33.45
-38.36
-43.85
-50.21
-57.51
-65.44
-73.20
-79.54
-82.97
-82.17
-76.40
-65.77
-51.29
-34.54
-17.27
-0.99
13.29
25.14
34.54
41.75
47.05
50.70
52.84
53.64
53.25
51.96
50.10
48.01
45.95
44.01
42.17
40.31
38.32
36.18
33.95
31.68
29.33
26.71
23.52
19.45
14.37
8.38
1.83
-4.81
-11.14
-16.92
-22.17
-27.08
-32.02
-37.36
-43.48
-50.65
-58.88
-67.77
-76.40
-83.36
-87.02
-85.91
-79.23
-67.11
-50.74
-32.03
-13.08
4.29
19.00
30.75
39.86
46.89
52.30
56.31
58.93
60.10
59.87
58.52
56.45
54.11
51.80
49.66
47.65
45.67
43.57
41.27
38.77
36.08
33.19
30.03
26.45
22.21
17.11
11.06
4.25
-2.91
-9.93
-16.47
-22.43
-28.01
-33.55
-39.40
-45.77
-52.79
-60.50
-68.79
-77.22
-84.84
-90.18
-91.60
-87.75
-78.20
-63.61
-45.68
-26.51
-8.05
8.41
22.35
33.87
43.35
51.15
57.45
62.30
65.63
67.45
67.85
67.07
65.42
63.24
60.81
58.34
55.89
53.47
50.97
48.30
45.32
41.94
38.11
33.81
29.08
24.01
18.64
12.99
7.05
0.83
-5.64
-12.21
-18.69
-24.92
-30.80
-36.44
-42.10
-48.16
-55.01
-62.81
-71.33
-79.77
-86.79
-90.69
-89.91
-83.50
-71.52
-55.12
-36.20
-16.91
0.92
16.14
28.40
37.90
45.15
50.60
54.62
57.33
58.83
59.19
58.59
57.23
55.37
53.19
50.81
48.30
45.68
43.02
40.39
37.83
35.30
32.69
29.75
26.29
22.17
17.35
11.93
6.04
-0.14
-6.40
-12.52
-18.31
-23.63
-28.44
-32.95
-37.55
-42.75
-48.93
-56.18
-64.09
-71.72
-77.72
-80.64
-79.25
-72.94
-61.90
-47.19
-30.42
-13.33
2.64
16.60
28.23
37.56
44.74
49.84
52.88
53.97
53.37
51.53
49.01
46.32
43.83
41.74
40.03
38.52
36.99
35.19
33.00
30.45
27.61
24.55
21.21
17.36
12.79
7.41
1.35
-5.05
-11.39
-17.36
-22.87
-27.97
-32.88
-37.94
-43.50
-49.91
-57.35
-65.70
-74.31
-81.95
-87.07
-88.11
-84.01
-74.59
-60.71
-43.99
-26.38
-9.66
4.97
17.07
26.78
34.55
40.84
45.96
50.01
52.98
54.87
55.69
55.54
54.51
52.78
50.50
47.91
45.22
42.61
40.15
37.80
35.41
32.84
29.96
26.72
23.06
18.90
14.11
8.64
2.52
-4.00
-10.58
-16.87
-22.67
-27.94
-32.86
-37.76
-43.03
-49.03
-55.96
-63.79
-71.99
-79.60
-85.26
-87.49
-85.12
-77.68
-65.56
-49.93
-32.46
-14.88
1.42
15.57
27.21
36.40
43.43
48.65
52.44
55.08
56.80
57.73
57.93
57.42
56.20
54.29
51.78
48.88
45.88
43.09
40.71
38.69
36.78
34.62
31.91
28.45
24.30
19.61
14.56
9.24
3.67
-2.12
-8.05
-13.96
-19.66
-25.03
-30.11
-35.13
-40.39
-46.22
-52.85
-60.34
-68.44
-76.60
-83.93
-89.19
-91.07
-88.42
-80.68
-68.13
-52.03
-34.23
-16.74
-1.08
11.97
22.41
30.74
37.48
42.95
47.19
50.12
51.71
52.11
51.59
50.47
49.00
47.33
45.52
43.60
41.61
39.57
37.52
35.42
33.21
30.80
28.06
24.94
21.39
17.40
12.98
8.17
3.03
-2.37
-7.94
-13.61
-19.25
-24.74
-29.99
-35.03
-40.10
-45.59
-51.93
-59.25
-67.12
-74.46
-79.73
-81.29
-77.96
-69.41
-56.28
-40.05
-22.56
-5.60
9.48
21.97
31.70
38.86
43.80
46.86
48.33
48.54
47.85
46.63
45.21
43.76
42.28
40.64
38.68
36.34
33.70
30.94
28.27
25.81
23.51
21.16
18.43
14.98
10.59
5.27
-0.76
-7.07
-13.24
-18.94
-24.09
-28.84
-33.53
-38.55
-44.21
-50.71
-58.01
-65.84
-73.58
-80.27
-84.63
-85.36
-81.42
-72.45
-58.95
-42.29
-24.34
-6.99
8.32
20.88
30.69
38.21
44.00
48.44
51.65
53.54
54.06
53.37
51.83
49.96
48.21
46.82
45.72
44.70
43.47
41.81
39.59
36.74
33.26
29.24
24.79
20.14
15.45
10.78
6.08
1.19
-4.04
-9.64
-15.56
-21.65
-27.78
-33.83
-39.74
-45.57
-51.51
-57.83
-64.72
-72.07
-79.15
-84.64
-86.91
-84.56
-76.90
-64.31
-48.12
-30.23
-12.58
3.35
16.75
27.47
35.79
42.22
47.16
50.91
53.60
55.33
56.19
56.35
55.93
54.98
53.49
51.40
48.76
45.73
42.58
39.61
36.92
34.44
31.95
29.17
25.86
21.94
17.44
12.46
7.12
1.50
-4.35
-10.37
-16.47
-22.45
-28.04
-33.08
-37.62
-42.05
-46.99
-53.05
-60.53
-69.04
-77.50
-84.28
-87.64
-86.18
-79.28
-67.30
-51.49
-33.67
-15.77
0.64
14.61
25.92
34.80
41.70
46.99
50.89
53.52
55.03
55.62
55.54
54.98
53.99
52.53
50.56
48.12
45.40
42.62
39.93
37.36
34.80
32.06
28.98
25.46
21.50
17.14
12.41
7.39
2.13
-3.30
-8.82
-14.35
-19.81
-25.15
-30.34
-35.42
-40.53
-45.90
-51.81
-58.42
-65.53
-72.42
-77.85
-80.26
-78.33
-71.37
-59.69
-44.52
-27.63
-10.89
4.31
17.17
27.49
35.39
41.18
45.07
47.27
48.02
47.67
46.61
45.24
43.84
42.48
41.08
39.44
37.42
35.01
32.38
29.79
27.47
25.49
23.72
21.81
19.33
15.93
11.40
5.86
-0.36
-6.71
-12.66
-17.82
-22.17
-25.96
-29.74
-34.08
-39.46
-46.03
-53.61
-61.55
-68.74
-73.75
-75.09
-71.65
-63.08
-50.04
-34.08
-17.23
-1.37
12.22
23.04
31.18
37.02
40.92
43.12
43.84
43.41
42.23
40.73
39.23
37.80
36.36
34.69
32.65
30.25
27.63
25.01
22.57
20.34
18.21
15.88
13.03
9.35
4.68
-0.89
-7.02
-13.20
-18.97
-24.08
-28.60
-32.92
-37.57
-43.07
-49.68
-57.22
-65.04
-72.00
-76.70
-77.77
-74.30
-66.11
-53.93
-39.18
-23.66
-8.94
3.94
14.62
23.27
30.30
35.99
40.51
43.85
45.99
47.03
47.17
46.62
45.56
44.00
41.86
39.08
35.72
32.02
28.37
25.13
22.51
20.48
18.68
16.59
13.72
9.73
4.56
-1.52
-8.09
-14.72
-21.02
-26.78
-31.98
-36.76
-41.44
-46.46
-52.23
-58.86
-65.92
-72.37
-76.76
-77.65
-74.07
-65.91
-53.95
-39.63
-24.56
-10.11
2.86
14.04
23.44
31.21
37.40
41.97
44.91
46.32
46.55
46.08
45.36
44.64
43.88
42.83
41.25
39.05
36.28
33.11
29.76
26.40
23.12
20.03
17.09
14.15
10.94
7.19
2.72
-2.42
-8.04
-13.86
-19.68
-25.45
-31.22
-37.08
-43.18
-49.63
-56.48
-63.61
-70.50
-76.20
-79.47
-79.08
-74.29
-65.17
-52.64
-38.19
-23.41
-9.52
2.83
13.49
22.65
30.55
37.26
42.72
46.77
49.33
50.45
50.35
49.39
47.84
45.91
43.66
41.11
38.33
35.51
32.92
30.76
29.04
27.52
25.75
23.26
19.72
15.06
9.52
3.50
-2.52
-8.18
-13.30
-17.97
-22.51
-27.36
-32.96
-39.64
-47.49
-56.26
-65.27
-73.43
-79.33
-81.53
-78.96
-71.25
-58.97
-43.50
-26.64
-10.17
4.62
17.13
27.28
35.33
41.57
46.21
49.30
50.92
51.28
50.68
49.55
48.28
47.07
45.94
44.75
43.32
41.44
39.02
36.03
32.56
28.74
24.70
20.55
16.27
11.79
6.97
1.76
-3.77
-9.43
-15.03
-20.50
-25.94
-31.52
-37.46
-43.87
-50.79
-58.19
-65.98
-73.88
-81.25
-87.06
-90.02
-88.94
-83.15
-72.73
-58.58
-42.13
-24.93
-8.28
6.99
20.50
32.17
42.03
50.09
56.35
60.82
63.64
65.06
65.38
64.86
63.64
61.83
59.56
57.06
54.64
52.49
50.61
48.78
46.63
43.83
40.25
35.95
31.10
25.89
20.43
14.74
8.81
2.69
-3.57
-9.85
-16.09
-22.23
-28.30
-34.31
-40.35
-46.50
-52.91
-59.82
-67.39
-75.62
-83.99
-91.44
-96.39
-97.16
-92.48
-82.04
-66.65
-48.07
-28.46
-9.70
7.00
21.27
33.31
43.52
52.20
59.41
65.14
69.39
72.33
74.17
75.10
75.09
74.01
71.74
68.37
64.30
60.12
56.41
53.47
51.19
49.14
46.72
43.47
39.15
33.87
27.93
21.72
15.60
9.78
4.26
-1.08
-6.48
-12.17
-18.25
-24.67
-31.24
-37.72
-43.93
-49.82
-55.57
-61.50
-67.99
-75.32
-83.44
-91.77
-99.12
-103.85
-104.26
-99.11
-88.13
-72.17
-52.94
-32.52
-12.78
5.03
20.35
33.11
43.50
51.76
58.10
62.76
65.93
67.85
68.70
68.60
67.61
65.86
63.52
60.80
57.95
55.21
52.78
50.73
48.94
47.13
44.86
41.71
37.47
32.28
26.56
20.85
15.51
10.57
5.73
0.55
-5.35
-12.06
-19.38
-26.91
-34.20
-40.93
-46.98
-52.48
-57.80
-63.40
-69.76
-77.06
-85.02
-92.72
-98.71
-101.27
-98.83
-90.50
-76.35
-57.56
-36.09
-14.24
5.92
23.03
36.53
46.55
53.64
58.44
61.47
63.11
63.61
63.22
62.17
60.67
58.87
56.84
54.55
51.99
49.22
46.34
43.48
40.75
38.06
35.19
31.84
27.78
22.92
17.39
11.47
5.45
-0.52
-6.45
-12.49
-18.80
-25.41
-32.12
-38.59
-44.49
-49.76
-54.71
-59.97
-66.25
-73.98
-82.99
-92.36
-100.53
-105.54
-105.62
-99.60
-87.27
-69.52
-48.15
-25.42
-3.55
15.80
31.71
44.06
53.26
59.91
64.62
67.84
69.84
70.81
70.86
70.08
68.51
66.20
63.24
59.80
56.22
52.90
50.08
47.74
45.44
42.50
38.31
32.71
26.08
19.28
13.19
8.30
4.53
1.23
-2.40
-7.02
-12.80
-19.52
-26.71
-33.94
-40.91
-47.60
-54.15
-60.86
-68.02
-75.92
-84.63
-93.84
-102.68
-109.66
-112.87
-110.50
-101.49
-85.92
-65.20
-41.62
-17.78
4.17
22.93
38.03
49.67
58.31
64.50
68.69
71.30
72.71
73.20
72.94
71.96
70.22
67.71
64.54
60.97
57.37
54.04
51.11
48.46
45.78
42.63
38.69
33.87
28.32
22.43
16.51
10.73
5.01
-0.91
-7.31
-14.30
-21.77
-29.40
-36.83
-43.73
-49.98
-55.74
-61.41
-67.55
-74.70
-83.06
-92.21
-101.00
-107.66
-110.13
-106.70
-96.54
-80.01
-58.70
-35.02
-11.53
9.59
27.02
40.39
50.00
56.55
60.78
63.31
64.60
65.02
64.82
64.14
63.02
61.39
59.19
56.45
53.33
50.04
46.77
43.59
40.49
37.35
34.06
30.47
26.44
21.79
16.36
10.06
2.99
-4.57
-12.20
-19.48
-26.08
-31.99
-37.45
-42.95
-49.07
-56.30
-64.88
-74.62
-84.81
-94.19
-101.07
-103.65
-100.40
-90.63
-74.78
-54.46
-31.98
-9.82
10.06
26.56
39.33
48.60
54.80
58.40
59.86
59.69
58.46
56.67
54.70
52.65
50.37
47.62
44.26
40.34
36.17
32.19
28.78
26.10
23.93
21.71
18.74
14.47
8.66
1.51
-6.46
-14.60
-22.34
-29.39
-35.76
-41.75
-47.89
-54.83
-63.05
-72.62
-82.84
-92.16
-98.50
-99.76
-94.54
-82.65
-65.21
-44.27
-22.21
-1.15
17.46
32.91
44.99
53.82
59.60
62.65
63.41
62.45
60.44
57.93
55.25
52.47
49.46
46.08
42.34
38.49
34.82
31.52
28.49
25.34
21.51
16.55
10.34
3.14
-4.49
-11.98
-18.94
-25.38
-31.71
-38.57
-46.60
-56.16
-67.00
-78.13
-87.95
-94.46
-95.79
-90.79
-79.32
-62.39
-41.89
-20.10
0.87
19.50
35.03
47.33
56.67
63.46
68.04
70.65
71.44
70.50
67.95
63.97
58.88
53.16
47.38
42.16
37.87
34.52
31.66
28.56
24.46
18.88
11.84
3.82
-4.54
-12.64
-20.12
-27.01
-33.65
-40.63
-48.60
-58.10
-69.14
-80.99
-92.08
-100.17
-103.03
-99.08
-88.01
-70.89
-49.88
-27.57
-6.20
12.71
28.56
41.44
51.74
59.93
66.23
70.74
73.41
74.30
73.53
71.40
68.25
64.43
60.28
56.11
52.28
49.13
46.89
45.56
44.78
43.89
42.06
38.57
33.06
25.63
16.88
7.58
-1.55
-10.12
-18.18
-26.21
-34.91
-44.87
-56.32
-68.84
-81.21
-91.58
-97.83
-98.16
-91.67
-78.65
-60.59
-39.72
-18.36
1.64
19.23
34.10
46.44
56.63
65.01
71.74
76.89
80.44
82.39
82.79
81.73
79.41
76.07
71.94
67.27
62.29
57.20
52.17
47.36
42.79
38.37
33.86
28.97
23.44
17.11
9.97
2.18
-6.01
-14.29
-22.36
-30.04
-37.22
-43.95
-50.40
-56.87
-63.79
-71.60
-80.51
-90.27
-99.92
-107.76
-111.71
-109.95
-101.52
-86.79
-67.32
-45.35
-23.09
-2.22
16.28
32.01
44.90
55.04
62.70
68.26
72.18
74.92
76.72
77.63
77.53
76.31
73.97
70.69
66.79
62.69
58.76
55.20
52.00
48.90
45.55
41.65
37.09
31.99
26.58
21.05
15.46
9.71
3.63
-2.86
-9.71
-16.74
-23.77
-30.55
-36.93
-42.89
-48.52
-54.08
-60.00
-66.70
-74.42
-83.02
-91.75
-99.27
-103.85
-103.77
-97.91
-86.15
-69.57
-50.14
-30.12
-11.41
4.91
18.61
29.99
39.42
47.14
