1629203386.00
64.000000
-0.00
-0.00
-0.00
-0.00
-0.00
-0.00
-0.00
-0.00
-0.00
-0.00
0.00
0.01
0.01
-0.00
-0.03
-0.05
-0.05
0.00
0.13
0.36
0.66
1.01
1.37
1.72
2.06
2.40
2.79
3.24
3.80
4.42
5.06
5.66
6.20
6.68
7.15
7.68
8.31
9.14
10.09
11.04
11.88
12.56
13.14
13.76
14.65
15.96
17.91
20.32
22.90
25.38
27.58
29.57
31.68
34.32
37.81
42.54
48.15
54.10
59.83
64.97
69.58
74.14
79.34
85.71
93.76
103.00
112.62
121.73
129.77
136.75
143.30
150.75
157.77
166.64
177.95
191.79
206.97
220.57
228.25
225.36
208.53
176.87
132.76
80.05
23.07
-34.94
-92.44
-149.16
-205.23
-260.37
-313.74
-363.87
-409.83
-450.91
-486.50
-515.74
-537.23
-549.22
-549.96
-538.37
-514.20
-478.67
-433.88
-382.45
-327.03
-269.85
-212.63
-156.65
-102.92
-52.34
-5.88
35.56
71.33
101.16
125.22
144.03
158.31
168.76
175.98
180.35
182.13
181.56
178.92
174.58
168.97
162.49
155.48
148.15
140.58
132.85
124.98
117.07
109.23
101.61
94.26
87.21
80.39
73.69
67.08
60.56
54.26
48.35
42.96
38.14
33.79
29.69
25.61
21.42
17.14
12.98
9.25
6.16
3.78
1.91
0.20
-1.72
-4.06
-6.75
-9.45
-11.74
-13.37
-14.32
-14.85
-15.36
-16.14
-17.30
-18.91
-21.11
-24.02
-27.49
-30.64
-31.89
-29.44
-22.22
-10.64
3.37
17.13
28.37
36.06
40.44
42.33
42.34
40.47
36.49
30.59
23.85
18.02
14.69
14.54
16.96
20.44
23.29
24.31
23.23
20.62
17.48
14.75
13.00
12.23
11.90
11.39
10.21
8.31
6.07
4.11
2.88
2.49
2.61
2.72
2.40
1.58
0.51
-0.35
-0.67
-0.44
0.10
0.56
0.67
0.47
0.23
0.28
0.86
1.97
3.42
4.92
6.29
7.43
8.36
9.15
9.83
10.40
10.81
11.01
10.99
10.72
10.12
9.10
7.55
5.18
1.91
-2.13
-6.51
-10.52
-13.34
-14.41
-13.58
-11.29
-8.46
-6.07
-4.85
-4.95
-6.01
-7.37
-8.46
-8.97
-8.96
-8.73
-8.53
-8.49
-8.57
-8.68
-8.72
-8.69
-8.59
-8.44
-8.21
-7.81
-7.15
-6.21
-5.00
-3.70
-2.56
-1.88
-1.87
-2.54
-3.65
-4.82
-5.64
-5.86
-5.54
-4.92
-4.29
-3.88
-3.78
-4.00
-4.55
-5.38
-6.49
-7.79
-9.14
-10.33
-11.17
-11.53
-11.45
-11.18
-11.09
-11.61
-12.93
-14.97
-17.20
-18.89
-19.01
-16.94
-12.62
-6.57
0.34
7.20
13.34
18.41
22.33
25.12
26.85
27.59
27.49
26.81
25.88
24.96
24.28
23.91
23.84
23.90
23.86
23.53
22.76
21.49
19.74
17.62
15.23
12.70
10.14
7.68
5.37
3.19
1.06
-1.13
-3.43
-5.81
-8.16
-10.42
-12.57
-14.65
-16.65
-18.51
-20.07
-21.27
-22.27
-23.48
-25.42
-28.54
-32.98
-38.46
-44.30
-49.65
-53.58
-55.35
-54.54
-51.13
-45.51
-38.43
-30.79
-23.44
-17.00
-11.67
-7.34
-3.68
-0.31
2.96
6.11
8.87
10.98
12.25
12.71
12.54
12.00
11.28
10.48
9.65
8.89
8.38
8.29
8.66
9.35
10.03
10.28
9.86
8.73
7.08
5.24
3.47
1.95
0.70
-0.43
-1.63
-3.10
-4.96
-7.20
-9.66
-12.08
-14.17
-15.73
-16.77
-17.48
-18.24
-19.47
-21.45
-24.14
-27.14
-29.66
-30.77
-29.62
-25.76
-19.25
-10.63
-0.81
9.27
18.72
26.92
33.51
38.41
41.65
43.41
43.89
43.33
42.06
40.44
38.89
37.76
37.19
37.11
37.25
37.32
37.16
36.77
36.21
35.52
34.60
33.34
31.69
29.73
27.62
25.50
23.36
21.08
18.51
15.57
12.26
8.66
4.90
1.05
-2.70
-6.14
-9.08
-11.52
-13.70
-16.11
-19.29
-23.57
-28.98
-35.20
-41.63
-47.49
-51.89
-53.98
-53.20
-49.39
-42.97
-34.87
-26.14
-17.68
-10.03
-3.30
2.63
7.86
12.45
16.38
19.63
22.22
24.24
25.74
26.77
27.34
27.51
27.39
27.17
27.02
27.14
27.61
28.34
29.10
29.55
29.31
28.10
25.89
22.83
19.28
15.63
12.23
9.39
7.25
5.74
4.61
3.45
1.77
-0.69
-3.91
-7.56
-11.17
-14.37
-17.07
-19.45
-21.87
-24.69
-28.14
-32.23
-36.66
-40.83
-43.93
-45.14
-43.79
-39.70
-33.24
-25.16
-16.42
-7.86
-0.11
6.43
11.50
14.95
16.75
17.13
16.50
15.50
14.76
14.83
15.97
18.06
20.69
23.24
25.14
26.06
25.96
25.01
23.43
21.40
18.95
16.15
13.15
10.20
7.52
5.16
2.87
0.31
-2.85
-6.68
-11.00
-15.49
-19.81
-23.71
-27.04
-29.82
-32.19
-34.45
-37.10
-40.64
-45.41
-51.31
-57.76
-63.68
-67.81
-69.02
-66.65
-60.74
-52.01
-41.69
-31.13
-21.44
-13.22
-6.61
-1.40
2.68
5.81
8.15
9.91
11.37
12.91
14.81
17.15
19.83
22.65
25.44
28.09
30.58
32.84
34.72
36.07
36.68
36.45
35.36
33.53
31.21
28.68
26.19
23.85
21.60
19.15
16.24
12.72
8.63
4.18
-0.31
-4.61
-8.63
-12.45
-16.27
-20.34
-24.90
-30.13
-35.95
-42.05
-47.72
-52.00
-53.82
-52.28
-46.99
-38.20
-26.82
-14.21
-1.74
9.52
19.07
26.88
33.13
37.96
41.34
43.19
43.58
42.90
41.80
41.00
40.90
41.50
42.47
43.36
43.84
43.77
43.19
42.19
40.74
38.78
36.23
33.10
29.52
25.79
22.26
19.22
16.72
14.59
12.47
9.94
6.76
2.94
-1.30
-5.58
-9.61
-13.30
-16.67
-19.93
-23.30
-27.03
-31.25
-35.91
-40.61
-44.60
-46.94
-46.77
-43.65
-37.77
-29.84
-20.86
-11.83
-3.51
3.68
9.51
13.92
16.97
18.85
19.82
20.25
20.46
20.76
21.31
22.19
23.31
24.49
25.46
25.92
25.70
24.75
23.26
21.49
19.66
17.92
16.22
14.44
12.44
10.12
7.54
4.80
2.02
-0.74
-3.45
-6.22
-9.08
-11.98
-14.80
-17.36
-19.57
-21.53
-23.52
-25.89
-28.93
-32.71
-36.97
-41.17
-44.58
-46.45
-46.21
-43.55
-38.53
-31.55
-23.25
-14.38
-5.63
2.43
9.44
15.20
19.64
22.90
25.18
26.71
27.68
28.23
28.39
28.22
27.86
27.51
27.30
27.26
27.24
26.94
26.05
24.39
21.95
18.92
15.61
12.31
9.26
6.52
4.03
1.59
-1.06
-4.20
-7.94
-12.22
-16.76
-21.20
-25.24
-28.76
-31.91
-35.01
-38.38
-42.25
-46.58
-51.03
-55.02
-57.83
-58.72
-57.16
-52.89
-46.02
-37.08
-26.86
-16.33
-6.35
2.44
9.71
15.41
19.64
22.59
24.50
25.59
26.12
26.34
26.51
26.75
27.12
27.56
27.95
28.20
28.17
27.74
26.80
25.28
23.19
20.69
18.01
15.34
12.73
10.09
7.26
4.12
0.65
-3.06
-6.86
-10.66
-14.34
-17.82
-21.08
-24.15
-27.17
-30.37
-34.01
-38.23
-42.97
-47.87
-52.28
-55.34
-56.17
-54.15
-49.07
-41.27
-31.60
-21.22
-11.30
-2.68
4.18
9.26
12.86
15.32
16.98
18.11
18.95
19.71
20.64
21.98
23.91
26.42
29.26
31.95
33.91
34.66
34.04
32.26
29.76
27.03
24.41
22.01
19.77
17.59
15.42
13.19
10.84
8.18
5.00
1.13
-3.44
-8.47
-13.59
-18.37
-22.41
-25.56
-27.99
-30.16
-32.76
-36.40
-41.30
-47.05
-52.66
-56.77
-58.11
-55.93
-50.14
-41.34
-30.55
-18.92
-7.52
2.83
11.67
18.81
24.28
28.23
30.84
32.23
32.63
32.37
31.90
31.67
31.97
32.81
33.87
34.70
34.90
34.32
33.09
31.48
29.78
28.14
26.55
24.81
22.70
20.05
16.77
12.91
8.57
3.91
-0.88
-5.52
-9.75
-13.31
-16.19
-18.68
-21.32
-24.79
-29.57
-35.69
-42.60
-49.22
-54.23
-56.53
-55.42
-50.82
-43.25
-33.65
-23.09
-12.57
-2.80
5.79
13.04
18.93
23.46
26.65
28.63
29.63
30.04
30.24
30.57
31.09
31.72
32.23
32.39
32.08
31.32
30.18
28.77
27.18
25.41
23.40
21.02
18.16
14.73
10.73
6.29
1.59
-3.14
-7.72
-12.04
-16.10
-20.01
-24.00
-28.32
-33.22
-38.82
-44.98
-51.20
-56.64
-60.30
-61.17
-58.58
-52.41
-43.20
-32.05
-20.30
-9.22
0.40
8.30
14.64
19.73
23.79
26.80
28.66
29.38
29.17
28.40
27.52
26.82
26.37
26.03
25.60
24.89
23.80
22.28
20.46
18.44
16.28
13.93
11.24
7.92
3.84
-0.96
-6.22
-11.53
-16.49
-20.86
-24.55
-27.63
-30.31
-32.92
-35.87
-39.62
-44.53
-50.69
-57.78
-64.96
-71.04
-74.71
-74.80
-70.65
-62.35
-50.70
-37.05
-22.95
-9.67
2.00
11.89
20.18
27.13
32.91
37.56
41.03
43.37
44.74
45.43
45.72
45.84
45.90
45.94
45.94
45.83
45.57
45.07
44.23
42.96
41.12
38.64
35.51
31.85
27.88
23.85
19.93
16.14
12.35
8.42
4.33
0.18
-3.85
-7.70
-11.49
-15.56
-20.25
-25.88
-32.55
-40.12
-48.19
-56.00
-62.50
-66.45
-66.70
-62.65
-54.42
-42.97
-29.78
-16.38
-3.92
7.05
16.53
24.78
32.00
38.23
43.27
46.88
48.96
49.70
49.52
48.95
48.44
48.19
48.15
48.17
48.12
47.97
47.77
47.50
46.98
45.88
43.84
40.70
36.58
31.90
27.16
22.77
18.90
15.45
12.19
8.83
5.19
1.21
-3.07
-7.52
-11.97
-16.24
-20.24
-23.99
-27.69
-31.61
-36.04
-41.18
-47.09
-53.54
-60.01
-65.60
-69.15
-69.48
-65.73
-57.81
-46.53
-33.39
-20.09
-7.92
2.52
11.34
19.01
25.84
31.83
36.70
40.21
42.41
43.69
44.64
45.70
46.99
48.34
49.46
50.17
50.46
50.49
50.37
50.02
49.14
47.40
44.61
40.87
36.58
32.28
28.40
25.13
22.37
19.87
17.36
14.73
12.07
9.51
7.14
4.89
2.57
-0.05
-3.10
-6.54
-10.26
-14.04
-17.75
-21.31
-24.79
-28.27
-31.93
-35.97
-40.46
-45.29
-49.96
-53.65
-55.35
-54.21
-49.87
-42.62
-33.30
-23.04
-12.93
-3.71
4.18
10.59
15.51
18.98
21.13
22.13
22.32
22.05
21.64
21.29
21.12
21.15
21.37
21.76
22.21
22.58
22.72
22.50
21.90
21.00
19.92
18.76
17.51
16.02
14.13
11.78
9.04
6.16
3.45
1.12
-0.86
-2.68
-4.65
-7.02
-9.86
-13.01
-16.23
-19.29
-22.10
-24.74
-27.39
-30.33
-33.74
-37.78
-42.46
-47.52
-52.39
-56.12
-57.65
-56.08
-51.06
-42.99
-32.88
-22.06
-11.73
-2.72
4.63
10.25
14.25
16.79
18.08
18.48
18.45
18.47
18.92
19.93
21.43
23.15
24.72
25.81
26.23
25.99
25.27
24.36
23.50
22.76
21.98
20.92
19.36
17.21
14.57
11.60
8.53
5.49
2.59
-0.11
-2.64
-5.14
-7.77
-10.73
-14.08
-17.73
-21.46
-25.04
-28.36
-31.47
-34.55
-37.82
-41.49
-45.62
-50.08
-54.49
-58.15
-60.13
-59.56
-55.89
-49.13
-39.94
-29.40
-18.71
-8.78
-0.14
7.10
13.03
17.74
21.25
23.53
24.60
24.64
24.05
23.34
22.99
23.30
24.30
25.76
27.30
28.54
29.23
29.26
28.64
27.44
25.79
23.77
21.48
19.01
16.40
13.75
11.18
8.78
6.63
4.66
2.70
0.49
-2.20
-5.41
-8.94
-12.42
-15.49
-17.96
-19.94
-21.75
-23.80
-26.48
-30.01
-34.43
-39.59
-45.16
-50.52
-54.82
-57.09
-56.49
-52.58
-45.55
-36.21
-25.82
-15.64
-6.64
0.72
6.44
10.80
14.12
16.57
18.20
19.04
19.24
19.10
18.99
19.23
19.98
21.17
22.52
23.70
24.42
24.57
24.22
23.57
22.83
22.13
21.38
20.40
18.97
17.05
14.75
12.34
10.11
8.16
6.42
4.65
2.58
0.07
-2.91
-6.26
-9.80
-13.36
-16.78
-19.94
-22.80
-25.50
-28.26
-31.39
-35.14
-39.58
-44.52
-49.45
-53.56
-55.85
-55.44
-51.77
-44.89
-35.51
-24.78
-13.97
-4.09
4.27
10.88
15.72
18.88
20.55
21.03
20.82
20.53
20.68
21.56
23.16
25.21
27.28
28.88
29.62
29.32
28.13
26.45
24.84
23.65
22.92
22.29
21.25
19.41
16.71
13.38
9.74
6.07
2.49
-0.98
-4.30
-7.41
-10.26
-12.83
-15.19
-17.48
-19.85
-22.53
-25.80
-29.90
-34.98
-40.93
-47.29
-53.27
-57.93
-60.30
-59.62
-55.57
-48.33
-38.68
-27.81
-17.02
-7.31
0.86
7.58
13.20
18.03
22.12
25.30
27.40
28.44
28.66
28.39
27.98
27.69
27.61
27.82
28.34
29.11
29.98
30.78
31.32
31.46
31.02
29.78
27.49
24.04
19.61
14.73
10.15
6.51
4.06
2.51
1.21
-0.59
-3.42
-7.39
-12.15
-17.10
-21.65
-25.45
-28.53
-31.30
-34.35
-38.17
-42.97
-48.37
-53.64
-57.69
-59.46
-58.11
-53.33
-45.36
-34.97
-23.28
-11.43
-0.38
9.27
17.28
23.55
28.09
30.92
32.24
32.45
32.17
32.08
32.68
34.15
36.36
38.98
41.67
44.05
45.87
46.94
47.17
46.59
45.35
43.64
41.59
39.24
36.56
33.50
30.11
26.46
22.68
18.83
14.94
11.00
7.08
3.26
-0.36
-3.66
-6.57
-9.13
-11.50
-14.02
-17.19
-21.47
-27.07
-33.80
-40.94
-47.47
-52.24
-54.30
-53.12
-48.71
-41.57
-32.67
-23.18
-14.12
-6.16
0.56
6.30
11.46
16.17
20.25
23.30
25.00
25.40
24.88
23.99
23.19
22.67
22.40
22.28
22.22
22.19
22.16
22.00
21.52
20.48
18.72
16.21
13.11
9.73
6.44
3.56
1.21
-0.75
-2.67
-4.97
-7.90
-11.47
-15.45
-19.54
-23.47
-27.13
-30.54
-33.81
-37.09
-40.55
-44.29
-48.26
-52.17
-55.36
-57.01
-56.28
-52.65
-46.12
-37.21
-26.85
-16.08
-5.80
3.39
11.24
17.71
22.91
26.87
29.58
31.00
31.26
30.66
29.75
29.10
29.13
29.97
31.39
32.97
34.21
34.67
34.13
32.55
30.11
27.10
23.92
20.92
18.31
16.13
14.25
12.42
10.40
7.95
4.95
1.39
-2.58
-6.71
-10.66
-14.20
-17.26
-20.05
-22.99
-26.51
-30.81
-35.76
-40.74
-44.80
-46.90
-46.21
-42.39
-35.69
-26.95
-17.27
-7.73
0.88
8.22
14.25
19.07
22.76
25.36
26.92
27.63
27.80
27.81
27.93
28.25
28.65
28.97
29.06
28.89
28.53
28.07
27.53
26.82
25.80
24.33
22.37
20.01
17.44
14.86
12.42
10.12
7.87
5.51
2.95
0.20
-2.65
-5.47
-8.19
-10.79
-13.38
-16.04
-18.88
-21.98
-25.42
-29.22
-33.28
-37.32
-40.81
-43.15
-43.76
-42.31
-38.80
-33.52
-27.05
-20.03
-13.00
-6.38
-0.44
4.69
8.92
12.18
14.47
15.83
16.45
16.57
16.49
16.55
16.95
17.80
19.04
20.55
22.11
23.49
24.56
25.21
25.44
25.29
24.81
23.99
22.80
21.27
19.49
17.67
16.06
14.76
13.74
12.74
11.47
9.70
7.38
4.62
1.65
-1.33
-4.22
-6.98
-9.65
-12.26
-14.81
-17.36
-20.00
-22.83
-25.91
-29.12
-32.16
-34.53
-35.69
-35.21
-32.94
-28.99
-23.75
-17.71
-11.37
-5.12
0.67
5.67
9.57
12.15
13.35
13.38
12.66
11.71
11.01
10.86
11.30
12.18
13.20
14.02
14.39
14.21
13.53
12.47
11.17
9.73
8.22
6.68
5.17
3.81
2.65
1.65
0.63
-0.67
-2.45
-4.79
-7.55
-10.47
-13.27
-15.75
-17.87
-19.76
-21.64
-23.77
-26.30
-29.21
-32.23
-34.85
-36.39
-36.27
-34.13
-29.96
-24.16
-17.36
-10.32
-3.77
1.77
6.04
9.05
11.00
12.19
12.92
13.36
13.57
13.56
13.40
13.28
13.45
14.07
15.13
16.39
17.51
18.18
18.19
17.53
16.26
14.48
12.27
9.70
6.93
4.12
1.48
-0.84
-2.81
-4.53
-6.19
-8.04
-10.25
-12.85
-15.78
-18.84
-21.83
-24.65
-27.31
-30.00
-32.96
-36.36
-40.11
-43.81
-46.76
-48.08
-47.01
-43.17
-36.67
-28.19
-18.72
-9.30
-0.72
6.54
12.30
16.60
19.51
21.15
21.75
21.62
21.18
20.82
20.86
21.40
22.35
23.46
24.43
25.05
25.16
24.79
24.02
22.99
21.77
20.38
18.78
16.92
14.85
12.70
10.67
8.88
7.38
6.05
4.67
3.05
1.08
-1.17
-3.53
-5.79
-7.88
-9.88
-12.04
-14.58
-17.65
-21.19
-24.93
-28.45
-31.24
-32.76
-32.54
-30.28
-25.96
-19.91
-12.79
-5.40
1.47
7.30
11.85
15.12
17.27
18.45
18.84
18.63
18.06
17.42
16.95
16.78
16.94
17.24
17.46
17.33
16.64
15.38
13.68
11.84
10.13
8.71
7.49
6.21
4.58
2.40
-0.27
-3.17
-5.96
-8.38
-10.41
-12.17
-13.88
-15.68
-17.72
-20.08
-22.86
-26.18
-30.02
-34.13
-37.93
-40.64
-41.45
-39.81
-35.60
-29.17
-21.28
-12.86
-4.83
2.10
7.53
11.36
13.76
15.05
15.58
15.68
15.62
15.64
15.91
16.50
17.37
18.34
19.16
19.52
19.25
18.28
16.75
14.90
13.05
11.46
10.18
9.08
7.88
6.21
3.87
0.84
-2.63
-6.22
-9.57
-12.51
-15.04
-17.33
-19.65
-22.28
-25.46
-29.34
-33.89
-38.83
-43.64
-47.53
-49.62
-49.13
-45.60
-39.13
-30.37
-20.40
-10.43
-1.48
5.88
11.55
15.78
18.91
21.23
22.87
23.88
24.31
24.32
24.17
24.15
24.45
25.10
25.91
26.60
26.85
26.49
25.54
24.16
22.55
20.83
18.99
16.90
14.50
11.81
8.95
6.08
3.26
0.41
-2.62
-5.91
-9.44
-13.02
-16.47
-19.74
-23.00
-26.59
-30.77
-35.53
-40.38
-44.46
-46.74
-46.39
-43.01
-36.86
-28.66
-19.42
-10.10
-1.41
6.22
12.61
17.73
21.60
24.29
25.97
26.90
27.42
27.82
28.29
28.84
29.33
29.60
29.52
29.11
28.42
27.58
26.69
25.78
24.81
23.68
22.26
20.40
18.05
15.19
11.93
8.43
4.90
1.51
-1.59
-4.31
-6.58
-8.45
-10.03
-11.57
-13.37
-15.76
-18.99
-23.16
-28.16
-33.56
-38.65
-42.52
-44.30
-43.37
-39.56
-33.26
-25.26
-16.54
-8.02
-0.33
6.22
11.59
15.93
19.39
22.11
24.18
25.66
26.66
27.34
27.89
28.43
29.01
29.55
29.95
30.14
30.10
29.92
29.61
29.19
28.52
27.46
25.82
23.49
20.52
17.07
13.44
9.98
6.93
4.34
2.01
-0.39
-3.14
-6.32
-9.81
-13.34
-16.66
-19.66
-22.50
-25.45
-28.84
-32.92
-37.71
-42.93
-47.97
-51.93
-53.90
-53.11
-49.26
-42.59
-33.84
-24.04
-14.20
-5.13
2.72
9.22
14.43
18.49
21.49
23.51
24.62
25.05
25.14
25.27
25.73
26.58
27.63
28.57
29.12
29.13
28.65
27.81
26.79
25.63
24.31
22.72
20.78
18.48
15.88
13.13
10.38
7.79
5.38
3.07
0.65
-2.05
-5.09
-8.37
-11.66
-14.74
-17.50
-20.01
-22.47
-25.08
-28.05
-31.52
-35.56
-40.16
-45.18
-50.17
-54.38
-56.85
-56.70
-53.45
-47.20
-38.68
-29.01
-19.34
-10.52
-2.94
3.49
9.09
14.16
18.80
22.84
26.00
28.06
29.04
29.23
29.09
28.99
29.12
29.46
29.88
30.31
30.75
31.25
31.72
31.94
31.55
30.24
27.89
24.72
21.19
17.80
14.98
12.90
11.47
10.42
9.41
8.13
6.36
4.04
1.17
-2.15
-5.82
-9.66
-13.46
-16.98
-20.05
-22.70
-25.18
-27.94
-31.42
-35.91
-41.34
-47.19
-52.63
-56.63
-58.22
-56.78
-52.16
-44.78
-35.50
-25.39
-15.45
-6.37
1.56
8.31
13.99
18.69
22.44
25.27
27.21
28.44
29.18
29.68
30.18
30.80
31.59
32.47
33.28
33.81
33.86
33.34
32.27
30.80
29.12
27.39
25.64
23.79
21.73
19.36
16.70
13.85
10.94
8.09
5.27
2.38
-0.73
-4.20
-8.01
-12.04
-16.07
-19.90
-23.46
-26.85
-30.33
-34.17
-38.55
-43.55
-49.08
-54.91
-60.63
-65.60
-69.00
-69.93
-67.68
-61.97
-53.18
-42.25
-30.46
-19.05
-8.82
-0.06
7.35
13.74
19.36
24.23
28.20
31.12
33.02
34.18
35.06
36.05
37.38
38.90
40.30
41.22
41.48
41.09
40.19
38.99
37.62
36.15
34.61
32.98
31.24
29.29
27.06
24.43
21.39
18.03
14.55
11.19
8.16
5.52
3.19
0.94
-1.53
-4.50
-8.15
-12.42
-17.11
-21.90
-26.55
-30.98
-35.23
-39.50
-44.07
-49.18
-54.94
-61.25
-67.59
-73.03
-76.42
-76.66
-73.12
-65.89
-55.79
-44.12
-32.25
-21.28
-11.78
-3.82
2.79
8.36
13.09
17.07
20.24
22.55
24.05
24.86
25.23
25.39
25.53
25.77
26.18
26.85
27.91
29.49
31.66
34.31
37.18
39.95
42.27
43.94
44.94
45.40
45.51
45.45
45.20
44.61
43.40
41.31
38.30
34.55
30.36
26.03
21.72
17.43
12.97
8.21
3.14
-2.09
-7.25
-12.10
-16.59
-20.84
-25.10
-29.70
-34.91
-40.86
-47.37
-53.98
-59.94
-64.26
-65.98
-64.39
-59.31
-51.14
-40.79
-29.49
-18.32
-8.06
0.95
8.72
15.33
20.84
25.20
28.36
30.42
31.71
32.64
33.62
34.85
36.31
37.82
39.20
40.28
40.98
41.28
41.15
40.63
39.75
38.59
37.17
35.47
33.42
31.04
28.44
25.82
23.37
21.16
19.04
16.79
14.25
11.44
8.50
5.66
2.97
0.32
-2.55
-5.86
-9.68
-13.89
-18.22
-22.37
-26.12
-29.41
-32.39
-35.36
-38.77
-42.98
-48.15
-54.04
-59.99
-64.95
-67.72
-67.29
-63.17
-55.58
-45.47
-34.18
-23.03
-12.95
-4.29
3.09
9.52
15.25
20.28
24.49
27.76
30.08
31.61
32.56
33.18
33.66
34.21
35.02
36.20
37.66
39.13
40.22
40.60
40.13
38.88
37.09
35.00
32.80
30.59
28.44
26.41
24.53
22.73
20.88
18.81
16.44
13.83
11.14
8.57
6.20
3.92
1.51
-1.28
-4.60
-8.38
-12.40
-16.32
-19.87
-22.94
-25.60
-28.13
-30.90
-34.27
-38.51
-43.63
-49.27
-54.70
-58.83
-60.52
-58.91
-53.77
-45.62
-35.61
-25.10
-15.29
-6.84
0.17
6.04
11.13
15.60
19.43
22.42
24.46
25.64
26.22
26.54
26.93
27.53
28.37
29.31
30.23
30.94
31.33
31.31
30.86
30.01
28.84
27.41
25.73
23.77
21.44
18.76
15.85
12.91
10.19
7.81
5.72
3.77
1.77
-0.39
-2.72
-5.21
-7.95
-11.07
-14.71
-18.77
-22.96
-26.84
-30.10
-32.77
-35.26
-38.21
-42.16
-47.30
-53.29
-59.31
-64.28
-67.06
-66.78
-63.01
-55.96
-46.42
-35.59
-24.76
-14.92
-6.58
0.29
6.00
10.92
15.26
19.04
22.20
24.69
26.55
27.92
29.01
30.00
31.00
32.04
33.04
33.86
34.38
34.58
34.47
34.13
33.58
32.71
31.35
29.39
26.85
24.03
21.30
18.94
17.00
15.27
13.42
11.19
8.54
5.68
2.86
0.27
-2.09
-4.42
-6.96
-9.86
-13.13
-16.63
-20.19
-23.69
-27.10
-30.50
-34.04
-37.86
-42.11
-46.82
-51.88
-56.93
-61.29
-64.04
-64.19
-61.07
-54.58
-45.34
-34.53
-23.52
-13.42
-4.78
2.41
8.49
13.83
18.60
22.76
26.12
28.57
30.18
31.17
31.84
32.48
33.23
34.06
34.86
35.48
35.86
35.99
35.89
35.54
34.84
33.64
31.82
29.39
26.54
23.60
20.86
18.48
16.47
14.67
12.87
10.93
8.82
6.63
4.50
2.53
0.66
-1.29
-3.61
-6.44
-9.74
-13.25
-16.62
-19.58
-22.13
-24.53
-27.16
-30.38
-34.40
-39.20
-44.55
-49.97
-54.76
-58.08
-59.09
-57.21
-52.34
-44.93
-35.85
-26.17
-16.78
-8.30
-0.96
5.33
10.75
15.45
19.46
22.68
24.98
26.32
26.84
26.90
26.93
27.32
28.21
29.58
31.20
32.80
34.13
34.96
35.11
34.45
32.97
30.78
28.17
25.47
22.94
20.72
18.79
17.01
15.17
13.12
10.76
8.06
5.07
1.92
-1.23
-4.27
-7.16
-9.98
-12.89
-16.04
-19.45
-23.05
-26.69
-30.23
-33.65
-37.12
-40.90
-45.19
-50.01
-55.01
-59.51
-62.55
-63.21
-60.84
-55.36
-47.24
-37.44
-27.10
-17.17
-8.25
-0.52
6.15
11.90
16.82
20.87
23.99
26.22
27.73
28.82
29.77
30.74
31.79
32.88
33.92
34.82
35.51
35.94
36.07
35.84
35.20
34.12
32.53
30.45
27.96
25.24
22.51
19.93
17.59
15.44
13.32
11.10
8.66
6.04
3.32
0.58
-2.20
-5.16
-8.48
-12.30
-16.57
-21.07
-25.48
-29.49
-33.00
-36.14
-39.28
-42.86
-47.28
-52.69
-58.93
-65.40
-71.13
-74.93
-75.66
-72.62
-65.84
-56.10
-44.72
-33.14
-22.49
-13.31
-5.54
1.19
7.24
12.78
17.70
21.79
24.90
27.09
28.62
29.80
30.88
31.98
33.12
34.27
35.44
36.59
37.70
38.63
39.19
39.22
38.60
37.30
35.45
33.27
31.05
29.05
27.43
26.12
24.84
23.19
20.84
17.70
13.99
10.13
6.55
3.49
0.92
-1.40
-3.81
-6.58
-9.87
-13.72
-18.04
-22.64
-27.31
-31.83
-36.14
-40.38
-44.87
-49.98
-55.85
-62.16
-68.06
-72.27
-73.54
-71.00
-64.58
-54.99
-43.52
-31.60
-20.38
-10.44
-1.91
5.40
11.72
17.19
21.78
25.46
28.25
30.29
31.83
33.12
34.32
35.52
36.71
37.86
38.91
39.84
40.60
41.11
41.22
40.77
39.66
37.93
35.71
33.29
30.94
28.82
26.93
25.10
23.13
20.89
18.38
15.74
13.12
10.61
8.16
5.59
2.70
-0.65
-4.47
-8.65
-13.03
-17.42
-21.72
-25.91
-30.07
-34.36
-38.95
-44.02
-49.56
-55.34
-60.77
-64.91
-66.70
-65.24
-60.13
-51.67
-40.84
-29.03
-17.62
-7.59
0.71
7.51
13.28
18.48
23.28
27.57
31.11
33.74
35.52
36.67
37.49
38.15
38.74
39.29
39.77
40.22
40.68
41.09
41.29
41.11
40.37
39.01
37.00
34.39
31.27
27.80
24.23
20.83
17.79
15.15
12.75
10.35
7.72
4.77
1.53
-1.95
-5.65
-9.60
-13.82
-18.30
-22.89
-27.36
-31.54
-35.41
-39.16
-43.14
-47.79
-53.35
-59.68
-66.17
-71.73
-75.06
-75.05
-71.11
-63.44
-52.93
-40.93
-28.82
-17.60
-7.77
0.65
7.93
14.34
20.02
24.91
28.93
32.04
34.32
36.00
37.37
38.67
40.06
41.55
43.02
44.29
45.19
45.60
45.49
44.89
43.86
42.47
40.76
38.74
36.45
33.96
31.35
28.72
26.16
23.68
21.21
18.66
15.93
12.97
9.78
6.39
2.83
-0.92
-4.91
-9.15
-13.56
-17.96
-22.12
-25.87
-29.27
-32.62
-36.42
-41.18
-47.16
-54.09
-61.15
-67.02
-70.28
-69.81
-65.16
-56.79
-45.82
-33.76
-21.99
-11.46
-2.53
4.89
11.13
16.47
21.08
24.99
28.17
30.67
32.61
34.15
35.45
36.57
37.46
38.02
38.18
37.95
37.45
36.82
36.18
35.52
34.72
33.61
31.99
29.77
26.91
23.52
19.80
16.07
12.65
9.79
7.57
5.84
4.25
2.35
-0.20
-3.59
-7.76
-12.42
-17.15
-21.60
-25.60
-29.19
-32.66
-36.44
-40.92
-46.31
-52.53
-59.11
-65.19
-69.64
-71.30
-69.31
-63.44
-54.23
-42.88
-30.87
-19.47
-9.41
-0.82
6.57
13.10
18.92
23.93
28.00
31.06
33.24
34.83
36.15
37.39
38.56
39.57
40.26
40.56
40.48
40.12
39.58
38.89
37.99
36.70
34.80
32.15
28.77
24.86
20.78
16.92
13.59
10.81
8.39
5.96
3.13
-0.33
-4.39
-8.79
-13.19
-17.32
-21.12
-24.74
-28.46
-32.58
-37.34
-42.84
-48.99
-55.45
-61.53
-66.24
-68.47
-67.33
-62.52
-54.48
-44.26
-33.14
-22.20
-12.03
-2.75
5.72
13.43
20.30
26.12
30.74
34.18
36.62
38.34
39.57
40.46
41.10
41.55
41.83
41.99
42.00
41.82
41.39
40.67
39.59
38.13
36.32
34.17
31.78
29.24
26.60
23.92
21.19
18.43
15.62
12.69
9.55
6.09
2.26
-1.89
-6.16
-10.31
-14.16
-17.62
-20.74
-23.69
-26.69
-30.01
-33.96
-38.79
-44.60
-51.22
-58.14
-64.46
-69.10
-71.00
-69.43
-64.21
-55.81
-45.31
-34.06
-23.33
-13.89
-5.86
1.15
7.72
14.21
20.57
26.36
31.04
34.22
35.85
36.22
35.82
35.20
34.79
34.90
35.64
36.91
38.45
39.89
40.84
41.02
40.25
38.51
35.93
32.78
29.46
26.33
23.65
21.46
19.58
17.71
15.59
13.14
10.44
7.68
5.01
2.43
-0.20
-3.08
-6.32
-9.91
-13.72
-17.55
-21.28
-24.84
-28.31
-31.85
-35.69
-40.06
-45.13
-50.79
-56.61
-61.75
-65.10
-65.57
-62.47
-55.78
-46.21
-34.98
-23.44
-12.71
-3.44
4.18
10.31
15.18
18.99
21.88
23.96
25.39
26.38
27.23
28.15
29.28
30.57
31.89
33.04
33.85
34.24
34.16
33.67
32.81
31.68
30.33
28.83
27.18
25.33
23.25
20.92
18.41
15.82
13.23
10.68
8.15
5.52
2.69
-0.41
-3.79
-7.40
-11.14
-14.87
-18.53
-22.05
-25.44
-28.79
-32.24
-36.01
-40.38
-45.58
-51.61
-58.14
-64.39
-69.23
-71.46
-70.17
-65.05
-56.53
-45.70
-33.99
-22.75
-12.86
-4.61
2.21
8.09
13.43
18.35
22.74
26.33
28.98
30.73
31.75
32.29
32.55
32.65
32.71
32.86
33.27
34.00
34.94
35.82
36.26
35.96
34.74
32.63
29.82
26.62
23.38
20.39
17.85
15.80
14.09
12.50
10.77
8.72
6.17
3.03
-0.71
-5.00
-9.64
-14.33
-18.71
-22.54
-25.77
-28.61
-31.40
-34.50
-38.21
-42.71
-48.02
-53.99
-60.15
-65.64
-69.31
-70.01
-66.91
-59.93
-49.84
-37.99
-25.92
-14.89
-5.50
2.23
8.72
14.38
19.47
23.94
27.58
30.24
31.94
32.93
33.59
34.25
35.07
35.99
36.88
37.63
38.26
38.86
39.41
39.77
39.61
38.62
36.70
33.99
30.87
27.75
24.88
22.26
19.74
17.13
14.38
11.63
9.06
6.81
4.82
2.83
0.51
-2.44
-6.13
-10.35
-14.75
-18.95
-22.73
-26.12
-29.37
-32.84
-36.83
-41.49
-46.81
-52.55
-58.16
-62.78
-65.35
-64.89
-60.82
-53.28
-43.14
-31.74
-20.47
-10.34
-1.81
5.18
10.98
15.93
20.20
23.80
26.66
28.74
30.09
30.88
31.36
31.76
32.26
32.96
33.83
34.80
35.77
36.60
37.16
37.26
36.74
35.45
33.41
30.77
27.79
24.77
21.98
19.53
17.43
15.61
13.89
12.10
10.08
7.72
4.97
1.90
-1.41
-4.90
-8.54
-12.33
-16.24
-20.14
-23.83
-27.16
-30.08
-32.82
-35.84
-39.68
-44.73
-51.00
-57.99
-64.70
-69.81
-72.04
-70.49
-64.97
-56.05
-44.90
-32.98
-21.61
-11.66
-3.41
3.32
8.98
13.99
18.57
22.69
26.22
29.00
31.02
32.44
33.47
34.32
35.08
35.79
36.49
37.20
37.97
38.72
39.28
39.35
38.59
36.83
34.12
30.78
27.32
24.27
22.03
20.68
19.97
19.35
18.24
16.25
13.35
9.89
6.35
3.14
0.32
-2.39
-5.39
-8.99
-13.17
-17.64
-21.97
-25.83
-29.16
-32.16
-35.21
-38.67
-42.85
-47.87
-53.58
-59.51
-64.85
-68.49
-69.34
-66.68
-60.41
-51.17
-40.12
-28.62
-17.77
-8.21
-0.09
6.74
12.50
17.33
21.28
24.37
26.70
28.45
29.87
31.16
32.38
33.52
34.51
35.32
36.03
36.71
37.39
37.98
38.23
37.85
36.64
34.61
31.98
29.13
26.47
24.21
22.34
20.65
18.85
16.71
14.17
11.33
8.36
5.43
2.62
-0.09
-2.79
-5.54
-8.44
-11.51
-14.78
-18.23
-21.83
-25.50
-29.20
-32.94
-36.85
-41.13
-45.94
-51.26
-56.73
-61.58
-64.77
-65.29
-62.49
-56.36
-47.53
-37.15
-26.46
-16.46
-7.64
-0.07
6.44
12.09
16.92
20.81
23.65
25.43
26.35
26.77
27.09
27.60
28.46
29.62
30.96
32.29
33.45
34.33
34.82
34.83
34.25
33.01
31.08
28.63
25.97
23.48
21.47
19.94
18.64
17.09
14.91
11.97
8.52
4.98
1.69
-1.24
-3.94
-6.64
-9.54
-12.66
-15.95
-19.36
-22.85
-26.49
-30.28
-34.21
-38.31
-42.68
-47.51
-52.94
-58.87
-64.81
-69.82
-72.74
-72.57
-68.78
-61.55
-51.74
-40.63
-29.51
-19.29
-10.38
-2.72
3.95
9.83
14.98
19.33
22.82
25.48
27.48
29.03
30.35
31.53
32.65
33.71
34.72
35.66
36.48
37.12
37.47
37.41
36.85
35.72
34.00
31.78
29.22
26.54
23.91
21.44
19.11
16.86
14.61
12.31
9.95
7.50
4.88
2.00
-1.22
-4.76
-8.51
-12.30
-15.99
-19.55
-23.09
-26.81
-30.93
-35.62
-40.95
-46.78
-52.73
-58.19
-62.33
-64.23
-63.14
-58.72
-51.22
-41.51
-30.80
-20.30
-10.85
-2.72
4.26
10.45
16.05
21.03
25.10
28.00
29.66
30.26
30.27
30.18
30.41
31.19
32.46
34.00
35.42
36.37
36.60
36.09
34.97
33.44
31.63
29.57
27.13
24.26
21.05
17.76
14.67
12.02
9.76
7.61
5.21
2.26
-1.33
-5.38
-9.57
-13.53
-17.08
-20.27
-23.30
-26.56
-30.45
-35.30
-41.24
-48.13
-55.42
-62.16
-67.12
-69.16
-67.50
-62.06
-53.53
-43.11
-32.14
-21.65
-12.21
-3.85
3.62
10.42
16.61
22.12
26.82
30.64
33.59
35.75
37.24
38.20
38.73
38.97
39.01
38.93
38.78
38.60
38.39
38.14
37.73
36.97
35.61
33.46
30.46
26.80
22.84
19.04
15.71
13.01
10.84
8.91
6.82
4.24
0.97
-3.01
-7.51
-12.29
-17.09
-21.73
-26.20
-30.58
-35.06
-39.85
-45.13
-50.92
-56.96
-62.63
-66.96
-68.86
-67.47
-62.49
-54.34
-43.99
-32.65
-21.36
-10.81
-1.25
7.29
14.90
21.53
27.08
31.46
34.69
36.90
38.42
39.62
40.79
42.10
43.51
44.84
45.88
46.44
46.46
45.94
44.95
43.55
41.84
39.87
37.69
35.32
32.78
30.06
27.20
24.23
21.20
18.08
14.84
11.40
7.75
3.99
0.26
-3.27
-6.55
-9.69
-12.86
-16.25
-20.00
-24.09
-28.49
-33.17
-38.16
-43.57
-49.43
-55.58
-61.52
-66.44
-69.32
-69.30
-65.96
-59.46
-50.54
-40.24
-29.56
-19.22
-9.60
-0.79
7.20
14.29
20.41
25.45
29.46
32.54
34.90
36.73
38.17
39.32
40.21
40.87
41.31
41.60
41.79
41.94
42.05
42.05
41.75
40.95
39.54
37.52
35.06
32.43
29.88
27.50
25.27
23.06
20.73
18.14
15.27
12.17
9.00
5.94
3.11
0.41
-2.38
-5.59
-9.39
-13.72
-18.30
-22.77
-26.87
-30.62
-34.24
-38.07
-42.40
-47.40
-52.92
-58.53
-63.44
-66.60
-66.98
-63.91
-57.37
-48.11
-37.30
-26.19
-15.70
-6.29
2.00
9.21
15.38
20.47
24.48
27.49
29.72
31.43
32.88
34.24
35.56
36.83
37.97
38.85
39.36
39.35
38.79
37.73
36.36
34.88
33.49
32.28
31.14
29.83
28.12
25.84
23.01
19.84
16.59
13.47
10.59
7.93
5.47
3.14
0.87
-1.51
-4.22
-7.54
-11.56
-16.14
-20.95
-25.59
-29.81
-33.65
-37.41
-41.51
-46.30
-51.85
-57.80
-63.34
-67.37
-68.75
-66.69
-61.06
-52.45
-42.02
-31.04
-20.56
-11.14
-2.92
4.25
10.55
16.10
20.93
25.02
28.34
30.89
32.71
33.95
34.81
35.50
36.17
36.83
37.37
37.67
37.64
37.28
36.56
35.46
33.91
31.97
29.87
27.91
26.31
25.03
23.75
22.00
19.47
16.13
12.31
8.44
4.87
1.76
-0.93
-3.39
-5.87
-8.56
-11.63
-15.16
-19.08
-23.25
-27.48
-31.66
-35.79
-39.96
-44.29
-48.92
-53.89
-59.15
-64.38
-68.92
-71.77
-71.91
-68.60
-61.82
-52.36
-41.50
-30.53
-20.37
-11.29
-3.09
4.53
11.74
18.39
24.16
28.73
31.97
34.00
35.19
36.02
36.86
37.88
39.02
40.06
40.79
41.09
41.02
40.67
40.10
39.27
38.10
36.51
34.58
32.40
30.17
27.96
25.80
23.60
21.27
18.69
15.81
12.67
9.46
6.44
3.81
1.60
-0.42
-2.65
-5.50
-9.12
-13.40
-17.99
-22.50
-26.67
-30.41
-33.85
-37.24
-40.89
-45.13
-50.16
-55.87
-61.72
-66.68
-69.52
-69.17
-65.16
-57.75
-47.92
-36.95
-26.08
-16.16
-7.53
-0.18
6.14
11.66
16.54
20.79
24.41
27.41
29.86
31.89
33.58
34.99
36.10
36.89
37.37
37.62
37.71
37.67
37.50
37.17
36.65
35.89
34.84
33.40
31.52
29.20
26.58
23.85
21.21
18.71
16.26
13.73
11.06
8.29
5.59
3.07
0.74
-1.55
-4.00
-6.79
-10.00
-13.57
-17.36
-21.10
-24.52
-27.47
-29.98
-32.38
-35.24
-39.13
-44.37
-50.82
-57.73
-63.90
-68.01
-68.95
-66.16
-59.78
-50.60
-39.87
-28.91
-18.76
-9.98
-2.59
3.77
9.50
14.86
19.87
24.40
28.25
31.28
33.44
34.77
35.37
35.40
35.06
34.59
34.23
34.10
34.27
34.66
35.07
35.24
34.87
33.77
31.91
29.44
26.68
23.97
21.56
19.48
17.64
15.85
13.99
11.96
9.77
7.41
4.82
1.96
-1.24
-4.79
-8.65
-12.75
-16.93
-21.04
-24.89
-28.34
-31.40
-34.26
-37.31
-41.05
-45.88
-51.87
-58.55
-64.90
-69.55
-71.14
-68.81
-62.51
-53.05
-41.83
-30.37
-19.81
-10.71
-3.06
3.44
9.11
14.14
18.57
22.41
25.66
28.35
30.51
32.13
33.21
33.81
34.04
34.10
34.21
34.56
35.18
35.98
36.76
37.23
37.12
36.24
34.54
32.17
29.41
26.62
24.09
21.96
20.16
18.47
16.63
14.46
11.91
9.09
6.16
3.21
0.25
-2.82
-6.12
-9.68
-13.45
-17.33
-21.17
-24.88
-28.42
-31.86
-35.33
-39.06
-43.36
-48.43
-54.23
-60.29
-65.68
-69.15
-69.58
-66.32
-59.49
-49.95
-39.02
-28.04
-18.02
-9.40
-2.13
4.15
9.83
15.15
20.06
24.37
27.79
30.21
31.67
32.48
33.02
33.59
34.33
35.17
35.93
36.45
36.68
36.65
36.41
35.94
35.12
33.74
31.72
29.14
26.25
23.45
21.04
19.12
17.52
15.96
14.16
12.04
9.68
7.26
4.85
2.35
-0.48
-3.82
-7.68
-11.84
-15.97
-19.82
-23.35
-26.73
-30.21
-34.07
-38.51
-43.63
-49.34
-55.24
-60.55
-64.16
-64.94
-62.12
-55.64
-46.25
-35.27
-24.14
-14.00
-5.37
1.79
7.91
13.42
18.52
23.10
26.90
29.62
31.21
31.87
32.04
32.18
32.56
33.18
33.87
34.45
34.82
35.03
35.11
35.05
34.65
33.70
32.04
29.66
26.74
23.59
20.52
17.75
15.34
13.18
11.06
8.75
6.10
3.08
-0.23
-3.71
-7.22
-10.74
-14.30
-17.96
-21.68
-25.36
-28.94
-32.44
-36.09
-40.27
-45.30
-51.26
-57.79
-64.11
-69.11
-71.69
-71.03
-66.85
-59.45
-49.64
-38.55
-27.31
-16.83
-7.60
0.32
7.17
13.34
19.08
24.40
29.08
32.83
35.42
36.85
37.39
37.43
37.35
37.42
37.77
38.43
39.34
40.40
41.35
41.85
41.53
40.15
37.74
34.61
31.26
28.13
25.50
23.37
21.56
19.82
17.91
15.71
13.15
10.23
6.97
3.43
-0.34
-4.27
-8.33
-12.40
-16.34
-20.03
-23.39
-26.56
-29.82
-33.59
-38.21
-43.92
-50.64
-57.87
-64.79
-70.22
-72.91
-71.92
-66.92
-58.39
-47.52
-35.81
-24.65
-14.86
-6.65
0.29
6.43
12.19
17.76
23.04
27.76
31.63
34.42
36.14
36.98
37.26
37.31
37.37
37.52
37.84
38.36
39.13
40.05
40.85
41.07
40.29
38.30
35.22
31.50
27.69
24.22
21.28
18.81
16.63
14.55
12.46
10.30
7.98
5.40
2.40
-1.12
-5.19
-9.71
-14.38
-18.81
-22.66
-25.81
-28.43
-30.95
-33.89
-37.69
-42.54
-48.38
-54.83
-61.24
-66.68
-70.04
-70.29
-66.78
-59.52
-49.26
-37.32
-25.20
-14.06
-4.54
3.34
9.89
15.51
20.46
24.76
28.29
30.91
32.59
33.50
33.93
34.24
34.72
35.44
36.30
37.07
37.48
37.40
36.83
35.94
34.88
33.74
32.49
30.94
28.89
26.25
23.15
19.88
16.81
14.23
12.17
10.42
8.61
6.36
3.43
-0.18
-4.31
-8.68
-13.04
-17.10
-20.77
-24.06
-27.19
-30.53
-34.53
-39.48
-45.34
-51.66
-57.56
-61.96
-63.76
-62.21
-57.08
-48.78
-38.32
-27.01
-16.14
-6.61
1.25
7.61
12.91
17.54
21.63
25.15
27.98
30.08
31.55
32.59
33.42
34.15
34.81
35.38
35.80
36.05
36.07
35.89
35.50
34.87
33.94
32.61
30.77
28.35
25.40
22.07
18.63
15.33
12.36
9.81
7.59
5.56
3.49
1.14
-1.66
-4.95
-8.68
-12.69
-16.72
-20.56
-24.07
-27.23
-30.20
-33.28
-36.88
-41.37
-46.97
-53.52
-60.37
-66.41
-70.32
-70.92
-67.62
-60.62
-50.85
-39.65
-28.33
-17.81
-8.51
-0.42
6.65
12.85
18.22
22.72
26.32
29.05
30.98
32.31
33.22
33.97
34.76
35.71
36.79
37.85
38.65
38.99
38.83
38.23
37.32
36.14
34.66
32.78
30.43
27.67
24.69
21.74
18.99
16.49
14.15
11.78
9.20
6.33
3.16
-0.30
-4.00
-7.89
-11.91
-15.96
-19.89
-23.59
-27.03
-30.35
-33.82
-37.78
-42.50
-48.01
-54.04
-59.91
-64.66
-67.16
-66.44
-62.00
-54.05
-43.57
-32.04
-20.94
-11.30
-3.43
3.00
8.61
13.87
18.89
23.41
27.06
29.62
31.04
31.52
31.39
31.01
30.71
30.75
31.27
32.22
33.39
34.47
35.16
35.27
34.68
33.34
31.23
28.41
25.08
21.60
18.43
15.88
14.04
12.68
11.34
9.60
7.15
3.89
-0.04
-4.36
-8.72
-12.78
-16.28
-19.18
-21.64
-24.05
-26.89
-30.60
-35.51
-41.62
-48.52
-55.35
-60.88
-63.77
-63.00
-58.18
-49.77
-38.91
-27.09
-15.70
-5.69
2.52
9.01
14.10
18.20
21.64
24.61
27.17
29.32
31.00
32.21
33.03
33.53
33.78
33.86
33.82
33.69
33.56
33.46
33.35
33.08
32.43
31.17
29.16
26.32
22.72
18.60
14.32
10.34
7.00
4.43
2.42
0.52
-1.80
-4.82
-8.46
-12.36
-16.04
-19.26
-22.10
-24.97
-28.39
-32.77
-38.27
-44.70
-51.56
-58.03
-63.09
-65.69
-65.04
-60.83
-53.40
-43.68
-32.89
-22.18
-12.32
-3.55
4.23
11.28
17.69
23.34
27.92
31.17
33.08
33.93
34.20
34.38
34.77
35.38
36.05
36.57
36.85
36.85
36.61
36.09
35.21
33.87
32.02
29.71
27.08
24.30
21.51
18.83
16.29
13.85
11.38
8.69
5.58
1.95
-2.13
-6.48
-10.82
-14.90
-18.59
-21.92
-25.07
-28.31
-31.92
-36.17
-41.21
-47.02
-53.28
-59.37
-64.32
-67.03
-66.62
-62.64
-55.39
-45.81
-35.20
-24.77
-15.29
-6.97
0.40
7.18
13.54
19.42
24.54
28.60
31.46
33.22
34.16
34.65
35.03
35.53
36.20
36.97
37.67
38.17
38.37
38.24
37.78
36.97
35.68
33.81
31.31
28.27
24.97
21.70
18.74
16.18
13.95
11.81
9.53
6.92
3.89
0.47
-3.24
-7.09
-10.89
-14.48
-17.76
-20.77
-23.67
-26.81
-30.57
-35.29
-41.08
-47.66
-54.33
-59.93
-63.21
-63.12
-59.20
-51.77
-41.89
-30.91
-20.12
-10.36
-1.94
5.28
11.56
17.07
21.83
25.71
28.64
30.69
32.06
33.06
33.89
34.55
34.91
34.80
34.18
33.21
32.25
31.59
31.34
31.30
31.07
30.24
28.56
26.04
22.83
19.24
15.59
12.16
9.20
6.80
4.88
3.17
1.27
-1.16
-4.25
-7.96
-12.08
-16.35
-20.55
-24.57
-28.41
-32.22
-36.27
-40.86
-46.15
-51.88
-57.34
-61.48
-63.26
-61.94
-57.37
-50.04
-40.80
-30.68
-20.56
-11.07
-2.54
4.92
11.34
16.77
21.25
24.81
27.44
29.24
30.38
31.13
31.75
32.42
33.18
34.02
34.81
35.35
35.39
34.79
33.54
31.79
29.85
27.98
26.24
24.52
22.59
20.29
17.70
14.97
12.30
9.73
7.12
4.31
1.20
-2.19
-5.70
-9.16
-12.46
-15.50
-18.32
-21.08
-24.09
-27.68
-32.14
-37.53
-43.61
-49.91
-55.74
-60.35
-62.98
-62.98
-59.98
-54.07
-45.87
-36.36
-26.61
-17.46
-9.22
-1.81
5.02
11.42
17.28
22.28
26.14
28.64
29.82
29.95
29.48
28.90
28.62
28.83
29.49
30.40
31.28
31.96
32.42
32.66
32.63
32.18
31.06
29.06
26.22
22.80
19.22
15.93
13.19
10.96
8.92
6.53
3.32
-0.88
-5.80
-10.86
-15.34
-18.82
-21.37
-23.50
-25.95
-29.39
-34.14
-40.13
-46.89
-53.58
-59.07
-62.17
-61.85
-57.66
-49.87
-39.56
-28.18
-17.11
-7.29
0.87
7.42
12.60
16.65
19.81
22.38
24.64
26.87
29.15
31.39
33.33
34.66
35.12
34.62
33.34
31.67
30.13
29.18
29.00
29.35
29.68
29.29
27.73
24.98
21.37
17.39
13.52
9.97
6.74
3.74
0.83
-2.06
-4.96
-7.89
-10.85
-13.89
-17.10
-20.67
-24.80
-29.69
-35.39
-41.72
-48.24
-54.24
-58.81
-61.08
-60.37
-56.46
-49.74
-41.08
-31.63
-22.47
-14.24
-7.06
-0.66
5.34
11.21
16.88
22.03
26.24
29.14
30.59
30.75
30.07
29.10
28.40
28.27
28.79
29.74
30.81
31.64
31.98
31.61
30.40
28.33
25.51
22.23
18.92
15.95
13.52
11.52
9.69
7.66
5.17
2.10
-1.50
-5.50
-9.72
-13.96
-18.06
-21.99
-25.89
-30.00
-34.51
-39.29
-43.68
-46.68
-47.19
-44.48
-38.51
-30.07
-20.37
-10.70
-1.99
5.41
11.58
16.78
21.25
24.96
27.76
29.45
30.05
29.77
29.04
28.25
27.70
27.44
27.37
27.30
27.06
26.54
25.69
24.51
23.01
21.21
19.07
16.58
13.63
10.17
6.19
1.85
-2.56
-6.73
-10.46
-13.75
-16.84
-20.04
-23.60
-27.66
-32.24
-37.30
-42.64
-47.84
-52.19
-54.73
-54.55
-51.12
-44.54
-35.59
-25.43
-15.27
-6.02
1.89
8.41
13.78
18.25
22.02
25.11
27.49
29.06
29.81
29.85
29.44
28.90
28.49
28.35
28.41
28.47
28.26
27.58
26.34
24.62
22.57
20.41
18.23
16.01
13.61
10.83
7.55
3.79
-0.33
-4.60
-8.81
-12.83
-16.63
-20.26
-23.86
-27.61
-31.73
-36.38
-41.53
-46.92
-51.94
-55.71
-57.29
-55.92
-51.32
-43.73
-33.94
-23.04
-12.11
-2.04
6.63
13.71
19.26
23.43
26.47
28.59
29.98
30.85
31.36
31.68
31.95
32.22
32.47
32.61
32.49
32.02
31.19
30.04
28.66
27.07
25.21
23.00
20.39
17.45
14.37
11.39
8.67
6.17
3.69
0.93
-2.35
-6.13
-10.24
-14.33
-18.09
-21.41
-24.39
-27.34
-30.73
-34.99
-40.36
-46.60
-52.96
-58.20
-60.90
-59.92
-54.86
-46.22
-35.26
-23.60
-12.62
-3.14
4.66
11.03
16.29
20.67
24.22
26.93
28.81
30.00
30.74
31.25
31.67
32.02
32.21
32.14
31.79
31.25
30.64
30.08
29.55
28.90
27.86
26.14
23.58
20.28
16.54
12.85
9.63
7.05
4.94
2.84
0.21
-3.27
-7.54
-12.22
-16.77
-20.76
-24.11
-27.00
-29.83
-32.97
-36.75
-41.33
-46.59
-51.99
-56.59
-59.14
-58.47
-53.94
-45.74
-34.93
-23.01
-11.50
-1.42
6.84
13.34
18.38
22.20
24.92
26.55
27.19
27.06
26.51
25.97
25.79
26.16
27.02
28.13
29.19
29.95
30.30
30.18
29.58
28.39
26.52
23.93
20.77
17.40
14.26
11.62
9.50
7.58
5.38
2.53
-1.13
-5.39
-9.86
-14.12
-17.84
-20.91
-23.45
-25.79
-28.35
-31.61
-35.88
-41.12
-46.68
-51.39
-53.77
-52.59
-47.29
-38.29
-26.88
-14.75
-3.45
6.05
13.49
19.09
23.23
26.18
27.99
28.60
28.04
26.58
24.73
23.09
22.21
22.30
23.20
24.39
25.29
25.44
24.75
23.43
21.81
20.19
18.58
16.83
14.68
11.96
8.66
4.89
0.84
-3.32
-7.48
-11.53
-15.35
-18.88
-22.12
-25.21
-28.43
-32.14
-36.61
-41.86
-47.45
-52.42
-55.51
-55.49
-51.64
-44.08
-33.76
-22.13
-10.64
-0.34
8.32
15.29
20.70
24.64
27.11
28.13
27.90
26.81
25.38
24.10
23.32
23.17
23.55
24.18
24.72
24.85
24.37
23.29
21.79
20.11
18.41
16.69
14.73
12.25
9.04
5.09
0.60
-4.09
-8.65
-12.89
-16.74
-20.27
-23.64
-27.06
-30.84
-35.30
-40.65
-46.81
-53.19
-58.65
-61.79
-61.39
-56.78
-48.25
-36.86
-24.17
-11.69
-0.54
8.72
16.01
21.47
25.33
27.78
29.03
29.36
29.09
28.59
28.16
28.00
28.14
28.48
28.80
28.84
28.41
27.42
25.94
24.22
22.49
20.89
19.34
17.63
15.43
12.49
8.71
4.20
-0.76
-5.82
-10.64
-15.00
-18.86
-22.37
-25.86
-29.76
-34.47
-40.17
-46.63
-53.09
-58.38
-61.11
-60.14
-54.94
-45.81
-33.82
-20.53
-7.50
4.04
13.43
20.50
25.48
28.72
30.62
31.48
31.56
31.07
30.24
29.38
28.77
28.61
28.93
29.51
29.94
29.81
28.87
27.15
24.94
22.64
20.56
18.76
17.06
15.08
12.47
8.99
4.68
-0.19
-5.21
-9.99
-14.24
-17.97
-21.42
-24.97
-29.01
-33.84
-39.49
-45.64
-51.54
-56.10
-58.12
-56.60
-51.10
-42.01
-30.39
-17.70
-5.35
5.62
14.71
21.84
27.14
30.78
32.95
33.83
33.73
33.02
32.12
31.36
30.91
30.74
30.66
30.34
29.53
28.13
26.26
24.22
22.44
21.14
20.28
19.40
17.90
15.27
11.34
6.41
1.09
-3.97
-8.35
-11.99
-15.13
-18.18
-21.53
-25.47
-30.18
-35.62
-41.46
-46.98
-51.13
-52.70
-50.78
-45.06
-36.00
-24.75
-12.77
-1.42
8.41
16.33
22.37
26.77
29.72
31.36
31.79
31.24
30.12
28.93
28.10
27.82
27.93
28.07
27.83
27.00
25.63
24.02
22.49
21.18
19.97
18.49
16.27
13.00
8.65
3.58
-1.67
-6.54
-10.72
-14.24
-17.46
-20.87
-24.89
-29.70
-35.22
-41.13
-46.81
-51.47
-54.20
-54.15
-50.81
-44.23
-35.06
-24.36
-13.33
-2.92
6.27
14.03
20.35
25.23
28.66
30.62
31.16
30.58
29.35
28.01
27.01
26.58
26.62
26.84
26.90
26.56
25.79
24.65
23.24
21.56
19.51
16.91
13.68
9.86
5.64
1.29
-2.97
-6.98
-10.67
-14.12
-17.51
-21.12
-25.27
-30.27
-36.21
-42.86
-49.50
-55.04
-58.20
-57.96
-53.84
-46.16
-35.92
-24.48
-13.18
-2.95
5.83
13.17
19.24
24.21
28.08
30.78
32.27
32.63
32.12
31.11
30.03
29.26
29.04
29.37
30.03
30.61
30.69
29.97
28.42
26.23
23.69
21.02
18.24
15.20
11.77
7.97
3.95
-0.02
-3.79
-7.37
-10.94
-14.71
-18.81
-23.26
-28.06
-33.24
-38.78
-44.54
-50.04
-54.42
-56.64
-55.78
-51.40
-43.78
-33.79
-22.67
-11.65
-1.63
6.97
14.12
20.02
24.87
28.71
31.50
33.17
33.78
33.56
32.90
32.19
31.72
31.60
31.76
31.99
32.06
31.75
30.91
29.49
27.51
25.06
22.23
19.12
15.83
12.47
9.15
5.91
2.68
-0.65
-4.21
-8.05
-12.08
-16.16
-20.13
-23.97
-27.84
-32.00
-36.76
-42.28
-48.52
-55.09
-61.21
-65.83
-67.78
-66.21
-60.87
-52.30
-41.74
-30.68
-20.44
-11.80
-4.91
0.45
4.65
7.90
10.23
11.59
12.06
11.99
11.86
12.22
13.38
15.40
18.03
20.97
24.04
27.20
30.55
34.06
37.49
40.33
42.05
42.35
41.31
39.32
36.89
34.36
31.76
28.83
25.24
20.86
15.77
10.32
4.99
0.21
-3.77
-6.95
-9.65
-12.37
-15.76
-20.32
-26.28
-33.37
-40.84
-47.54
-52.18
-53.61
-51.17
-44.92
-35.71
-24.87
-13.91
-4.04
4.13
10.54
15.52
19.42
22.43
24.64
26.06
26.78
27.03
27.04
27.00
26.95
26.84
26.62
26.29
25.91
25.56
25.33
25.16
24.94
24.42
23.38
21.64
19.19
16.12
12.61
8.89
5.12
1.40
-2.13
-5.41
-8.42
-11.22
-13.93
-16.77
-19.92
-23.52
-27.68
-32.48
-37.89
-43.63
-49.05
-53.10
-54.61
-52.74
-47.27
-38.81
-28.61
-18.09
-8.38
-0.08
6.75
12.37
17.07
21.02
24.18
26.40
27.57
27.73
27.09
26.07
25.14
24.67
24.75
25.18
25.59
25.56
24.91
23.70
22.18
20.60
19.05
17.36
15.24
12.43
8.84
4.60
0.01
-4.57
-8.82
-12.62
-15.98
-19.09
-22.19
-25.61
-29.58
-34.34
-39.90
-46.05
-52.20
-57.41
-60.59
-60.77
-57.47
-50.83
-41.68
-31.18
-20.52
-10.58
-1.79
5.75
12.14
17.49
21.79
25.00
27.14
28.30
28.74
28.81
28.80
28.92
29.25
29.68
30.08
30.25
30.09
29.53
28.55
27.20
25.50
23.51
21.24
18.71
15.86
12.65
9.05
5.11
0.95
-3.25
-7.33
-11.20
-14.90
-18.56
-22.38
-26.60
-31.43
-36.99
-43.21
-49.73
-55.82
-60.46
-62.58
-61.38
-56.62
-48.75
-38.77
-27.87
-17.13
-7.20
1.66
9.51
16.45
22.49
27.50
31.32
33.85
35.17
35.53
35.25
34.69
34.13
33.83
33.92
34.46
35.34
36.27
36.89
36.80
35.73
33.63
30.61
26.98
23.04
19.13
15.46
12.12
9.01
5.93
2.60
-1.14
-5.28
-9.59
-13.74
-17.51
-20.89
-24.16
-27.74
-32.07
-37.42
-43.75
-50.62
-57.13
-62.07
-64.16
-62.48
-56.76
-47.61
-36.30
-24.33
-13.00
-3.07
5.32
12.40
18.51
23.81
28.28
31.81
34.31
35.87
36.77
37.37
37.96
38.64
39.30
39.69
39.59
38.99
38.10
37.21
36.48
35.80
34.83
33.14
30.47
26.85
22.65
18.38
14.49
11.24
8.53
6.05
3.35
0.07
-3.92
-8.43
-13.10
-17.52
-21.42
-24.84
-28.10
-31.63
-35.89
-41.11
-47.28
-54.00
-60.44
-65.48
-67.90
-66.78
-61.82
-53.49
-42.87
-31.32
-20.02
-9.70
-0.64
7.21
14.00
19.80
24.59
28.31
30.91
32.43
33.04
33.02
32.69
32.40
32.38
32.72
33.37
34.17
34.89
35.32
35.28
34.58
33.13
30.87
27.91
24.48
20.91
17.53
14.55
12.02
9.75
7.42
4.66
1.23
-2.88
-7.43
-12.03
-16.31
-20.09
-23.47
-26.80
-30.50
-34.97
-40.28
-46.14
-51.77
-56.04
-57.80
-56.16
-50.83
-42.31
-31.70
-20.34
-9.46
0.16
8.24
14.87
20.28
24.62
27.94
30.24
31.52
31.87
31.53
30.80
30.02
29.49
29.38
29.70
30.31
30.97
31.41
31.39
30.74
29.34
27.20
24.39
21.10
17.56
14.01
10.62
7.40
4.24
0.95
-2.60
-6.46
-10.50
-14.50
-18.30
-21.84
-25.30
-29.00
-33.32
-38.51
-44.49
-50.80
-56.52
-60.55
-61.82
-59.62
-53.84
-45.01
-34.19
-22.68
-11.67
-1.94
6.20
12.81
18.14
22.40
25.72
28.11
29.67
30.53
30.94
31.14
31.30
31.48
31.66
31.81
31.90
31.88
31.70
31.24
30.43
29.20
27.57
25.51
23.02
20.08
16.72
13.08
9.30
5.52
1.77
-2.03
-5.93
-9.93
-13.87
-17.62
-21.10
-24.50
-28.18
-32.62
-38.12
-44.65
-51.73
-58.36
-63.26
-65.12
-63.05
-56.91
-47.44
-36.02
-24.22
-13.32
-3.99
3.72
10.14
15.62
20.37
24.41
27.64
30.03
31.65
32.70
33.36
33.77
33.98
33.94
33.65
33.11
32.50
32.01
31.75
31.68
31.50
30.79
29.18
26.57
23.13
19.30
15.51
12.03
8.87
5.84
2.65
-0.88
-4.72
-8.70
-12.54
-16.04
-19.18
-22.13
-25.29
-29.10
-33.92
-39.79
-46.39
-52.96
-58.41
-61.56
-61.45
-57.64
-50.38
-40.57
-29.51
-18.47
-8.38
0.32
7.70
14.02
19.50
24.18
27.96
30.69
32.37
33.18
33.43
33.44
33.45
33.58
33.81
34.02
34.14
34.12
33.95
33.67
33.21
32.44
31.07
28.88
25.79
21.96
17.82
13.85
10.45
7.68
5.29
2.87
0.02
-3.40
-7.27
-11.31
-15.20
-18.81
-22.19
-25.54
-29.15
-33.26
-38.04
-43.49
-49.37
-55.10
-59.74
-62.16
-61.33
-56.71
-48.55
-37.87
-26.16
-14.92
-5.18
2.70
8.95
13.99
18.15
21.52
24.04
25.69
26.65
27.26
27.83
28.50
29.17
29.60
29.63
29.26
28.69
28.19
27.98
28.04
28.14
27.88
26.88
24.88
21.90
18.23
14.32
10.66
7.56
5.05
2.93
0.89
-1.37
-4.01
-7.04
-10.38
-13.93
-17.58
-21.25
-24.96
-28.84
-33.09
-37.84
-43.01
-48.11
-52.32
-54.62
-54.16
-50.52
-43.94
-35.20
-25.38
-15.50
-6.33
1.78
8.79
14.75
19.66
23.40
25.88
27.08
27.25
26.78
26.17
25.78
25.73
25.97
26.30
26.54
26.63
26.59
26.46
26.19
25.63
24.60
22.95
20.69
17.96
15.00
12.03
9.19
6.47
3.76
0.92
-2.13
-5.39
-8.78
-12.16
-15.43
-18.58
-21.76
-25.22
-29.26
-34.08
-39.62
-45.47
-50.88
-54.85
-56.38
-54.80
-49.97
-42.34
-32.82
-22.56
-12.58
-3.60
4.03
10.30
15.38
19.45
22.66
25.07
26.73
27.70
28.10
28.08
27.84
27.54
27.28
27.15
27.13
27.20
27.29
27.33
27.18
26.63
25.40
23.24
20.06
16.07
11.73
7.66
4.36
2.01
0.38
-1.05
-2.81
-5.28
-8.50
-12.33
-16.49
-20.74
-24.92
-28.93
-32.79
-36.65
-40.76
-45.28
-50.12
-54.71
-58.09
-59.17
-57.12
-51.74
-43.51
-33.46
-22.80
-12.59
-3.48
4.25
10.64
15.89
20.13
23.48
26.00
27.73
28.76
29.25
29.41
29.44
29.44
29.42
29.30
29.06
28.69
28.31
28.04
27.89
27.67
27.06
25.70
23.37
20.19
16.53
12.92
9.76
7.23
5.14
3.11
0.72
-2.30
-5.95
-10.03
-14.17
-18.08
-21.63
-24.91
-28.22
-31.95
-36.43
-41.74
-47.61
-53.32
-57.86
-60.09
-59.14
-54.69
-47.12
-37.39
-26.80
-16.55
-7.45
0.21
6.53
11.83
16.37
20.24
23.41
25.76
27.23
27.95
28.14
28.10
28.09
28.22
28.48
28.77
29.03
29.21
29.31
29.29
28.97
28.13
26.60
24.32
21.45
18.32
15.26
12.55
10.27
8.30
6.33
4.04
1.13
-2.45
-6.57
-10.93
-15.20
-19.14
-22.69
-25.98
-29.32
-33.05
-37.48
-42.73
-48.55
-54.24
-58.72
-60.78
-59.49
-54.54
-46.38
-36.10
-25.01
-14.26
-4.58
3.74
10.72
16.53
21.24
24.87
27.39
28.85
29.44
29.49
29.41
29.53
30.01
30.78
31.63
32.30
32.65
32.62
32.24
31.55
30.49
28.99
26.94
24.36
21.35
18.12
14.93
12.02
9.48
7.22
4.93
2.25
-1.10
-5.13
-9.54
-13.85
-17.61
-20.66
-23.15
-25.55
-28.38
-32.11
-36.98
-42.89
-49.40
-55.68
-60.63
-63.06
-62.03
-57.18
-48.90
-38.20
-26.46
-15.01
-4.82
3.69
10.54
16.01
20.41
23.95
26.71
28.66
29.88
30.53
30.90
31.22
31.63
32.05
32.36
32.43
32.25
31.97
31.72
31.61
31.55
31.32
30.57
28.99
26.42
22.96
18.93
14.81
11.08
7.97
5.43
3.11
0.56
-2.56
-6.33
-10.49
-14.61
-18.29
-21.34
-23.92
-26.41
-29.30
-33.03
-37.76
-43.38
-49.46
-55.22
-59.69
-61.86
-60.90
-56.43
-48.70
-38.54
-27.12
-15.69
-5.19
3.83
11.21
17.07
21.60
24.99
27.41
29.00
29.91
30.38
30.63
30.89
31.35
32.06
32.96
33.83
34.43
34.57
34.20
33.40
32.30
30.97
29.37
27.36
24.83
21.80
18.52
15.33
12.47
9.96
7.56
4.89
1.64
-2.22
-6.40
-10.47
-14.03
-16.92
-19.24
-21.38
-23.90
-27.36
-32.12
-38.14
-44.87
-51.19
-55.75
-57.25
-54.93
-48.79
-39.61
-28.68
-17.45
-7.11
1.66
8.73
14.33
18.84
22.53
25.49
27.65
28.95
29.45
29.36
28.94
28.40
27.88
27.41
27.05
26.88
27.01
27.47
28.06
28.44
28.20
27.06
24.94
22.06
18.77
15.45
12.30
9.39
6.58
3.66
0.49
-2.98
-6.69
-10.49
-14.34
-18.29
-22.45
-26.95
-31.88
-37.23
-42.85
-48.45
-53.52
-57.25
-58.68
-56.97
-51.71
-43.23
-32.57
-21.17
-10.41
-1.18
6.31
12.31
17.24
21.39
24.79
27.32
28.85
29.43
29.29
28.79
28.30
28.05
28.14
28.49
28.95
29.30
29.37
29.03
28.20
26.81
24.86
22.39
19.45
16.16
12.65
9.01
5.32
1.62
-2.01
-5.53
-8.90
-12.13
-15.32
-18.62
-22.27
-26.50
-31.48
-37.24
-43.57
-49.88
-55.29
-58.76
-59.41
-56.78
-50.97
-42.61
-32.65
-22.09
-11.76
-2.22
6.25
13.53
19.59
24.44
28.05
30.44
31.67
31.92
31.48
30.78
30.22
30.08
30.44
31.17
32.01
32.65
32.76
32.08
30.49
28.03
24.90
21.50
18.19
15.24
12.70
10.41
8.07
5.39
2.18
-1.64
-5.96
-10.52
-15.03
-19.18
-22.81
-25.98
-29.01
-32.39
-36.59
-41.85
-47.96
-54.18
-59.30
-61.98
-61.08
-56.13
-47.53
-36.42
-24.34
-12.75
-2.62
5.76
12.53
18.03
22.50
26.01
28.50
30.01
30.79
31.23
31.77
32.63
33.80
34.99
35.81
35.95
35.36
34.27
33.03
31.99
31.22
30.54
29.55
27.87
25.30
21.94
18.17
14.41
10.99
8.02
5.37
2.79
-0.00
-3.14
-6.61
-10.26
-13.86
-17.23
-20.35
-23.38
-26.63
-30.46
-35.16
-40.83
-47.25
-53.87
-59.73
-63.68
-64.62
-61.87
-55.47
-46.17
-35.32
-24.30
-14.15
-5.33
2.19
8.69
14.37
19.25
23.19
26.06
27.93
29.03
29.68
30.21
30.81
31.53
32.30
33.00
33.53
33.89
34.08
34.13
33.98
33.46
32.33
30.35
27.46
23.84
19.90
16.10
12.83
10.22
8.11
6.13
3.88
1.03
-2.47
-6.46
-10.59
-14.50
-17.98
-21.05
-23.93
-27.01
-30.68
-35.23
-40.70
-46.79
-52.74
-57.48
-59.79
-58.66
-53.65
-45.10
-34.07
-22.04
-10.42
-0.22
8.11
14.60
19.52
23.18
25.82
27.67
28.93
29.80
30.42
30.87
31.16
31.25
31.18
30.99
30.80
30.69
30.69
30.72
30.56
29.98
28.74
26.70
23.91
20.58
17.06
13.68
10.64
7.92
5.30
2.49
-0.74
-4.42
-8.42
-12.50
-16.41
-20.03
-23.44
-26.85
-30.62
-35.12
-40.50
-46.56
-52.63
-57.59
-60.16
-59.32
-54.70
-46.72
-36.49
-25.41
-14.72
-5.20
2.89
9.68
15.43
20.31
24.36
27.51
29.71
31.01
31.57
31.65
31.48
31.25
31.03
30.85
30.71
30.64
30.66
30.73
30.70
30.30
29.22
27.24
24.32
20.67
16.67
12.73
9.18
6.13
3.43
0.76
-2.18
-5.61
-9.51
-13.71
-17.90
-21.83
-25.41
-28.79
-32.30
-36.35
-41.29
-47.19
-53.63
-59.72
-64.24
-65.91
-63.88
-57.99
-48.89
-37.87
-26.39
-15.67
-6.35
1.51
8.22
14.18
19.59
24.36
28.26
31.09
32.87
33.83
34.32
34.63
34.92
35.17
35.29
35.24
35.04
34.72
34.26
33.55
32.37
30.55
27.97
24.72
21.04
17.23
13.58
10.26
7.22
4.26
1.12
-2.39
-6.29
-10.44
-14.62
-18.66
-22.52
-26.37
-30.46
-35.08
-40.43
-46.47
-52.86
-58.85
-63.38
-65.32
-63.78
-58.52
-50.02
-39.40
-28.09
-17.32
-7.86
0.11
6.81
12.61
17.77
22.34
26.20
29.21
31.28
32.52
33.09
33.27
33.27
33.24
33.21
33.18
33.13
32.99
32.73
32.29
31.52
30.28
28.44
25.93
22.79
19.13
15.13
10.97
6.84
2.92
-0.66
-3.89
-6.83
-9.68
-12.73
-16.24
-20.44
-25.43
-31.21
-37.55
-43.93
-49.46
-53.04
-53.66
-50.75
-44.45
-35.57
-25.38
-15.11
-5.70
2.47
9.37
15.20
20.17
24.41
27.96
30.81
32.98
34.46
35.31
35.64
35.59
35.36
35.08
34.81
34.55
34.22
33.73
33.00
31.99
30.59
28.71
26.26
23.16
19.51
15.51
11.45
7.60
4.12
0.94
-2.10
-5.23
-8.57
-12.08
-15.67
-19.26
-22.94
-26.97
-31.67
-37.17
-43.21
-49.05
-53.57
-55.58
-54.27
-49.49
-41.83
-32.41
-22.52
-13.12
-4.76
2.51
8.83
14.30
18.90
22.49
25.02
26.57
27.41
27.90
28.33
28.84
29.39
29.86
30.14
30.17
29.96
29.55
28.99
28.28
27.33
26.06
24.37
22.23
19.75
17.10
14.44
11.83
9.24
6.51
3.50
0.21
-3.23
-6.61
-9.77
-12.66
-15.40
-18.16
-21.13
-24.48
-28.34
-32.80
-37.79
-42.94
-47.59
-50.78
-51.54
-49.24
-43.83
-35.87
-26.41
-16.60
-7.38
0.71
7.49
12.99
17.34
20.61
22.85
24.12
24.58
24.50
24.23
24.09
24.29
24.85
25.61
26.33
26.74
26.68
26.07
24.95
23.40
21.54
19.47
17.26
14.97
12.63
10.26
7.85
5.39
2.83
0.16
-2.66
-5.60
-8.56
-11.42
-14.09
-16.59
-19.06
-21.80
-25.16
-29.37
-34.44
-39.99
-45.24
-49.17
-50.69
-49.08
-44.18
-36.51
-27.12
-17.27
-8.08
-0.23
6.05
10.95
14.80
17.91
20.46
22.48
23.92
24.77
25.08
25.04
24.86
24.75
24.79
24.93
25.02
24.88
24.44
23.69
22.69
21.50
20.11
18.46
16.44
13.98
11.03
7.69
4.10
0.47
-3.03
-6.31
-9.44
-12.52
-15.70
-19.03
-22.52
-26.19
-30.14
-34.51
-39.33
-44.38
-49.03
-52.32
-53.32
-51.36
-46.39
-38.97
-30.07
-20.79
-12.00
-4.22
2.44
8.09
12.94
17.10
20.55
23.20
24.98
25.94
26.27
26.25
26.07
25.88
25.67
25.47
25.28
25.17
25.15
25.09
24.77
23.91
22.33
20.08
17.39
14.57
11.88
9.48
7.33
5.31
3.19
0.77
-2.11
-5.53
-9.40
-13.48
-17.49
-21.20
-24.53
-27.62
-30.78
-34.32
-38.43
-43.04
-47.64
-51.41
-53.38
-52.71
-49.01
-42.52
-34.04
-24.66
-15.37
-6.77
0.93
7.79
13.85
18.99
23.00
25.70
27.18
27.76
27.90
28.00
28.26
28.71
29.25
29.76
30.14
30.33
30.29
29.95
29.23
28.11
26.54
24.51
22.07
19.33
16.45
13.62
11.02
8.71
6.61
4.47
2.02
-0.93
-4.40
-8.25
-12.14
-15.82
-19.11
-22.05
-24.85
-27.77
-31.10
-35.02
-39.58
-44.63
-49.71
-54.04
-56.62
-56.47
-52.99
-46.27
-37.05
-26.57
-16.13
-6.70
1.25
7.70
12.91
17.14
20.56
23.23
25.16
26.41
27.13
27.57
27.96
28.42
28.91
29.27
29.31
28.98
28.36
27.66
27.03
26.50
25.94
25.11
23.84
22.05
19.81
17.30
14.73
12.28
9.99
7.83
5.60
3.09
0.15
-3.22
-6.84
-10.41
-13.64
-16.45
-18.96
-21.51
-24.47
-28.11
-32.54
-37.67
-43.11
-48.21
-52.05
-53.65
-52.23
-47.53
-39.94
-30.39
-20.09
-10.13
-1.23
6.26
12.31
17.00
20.41
22.65
23.87
24.31
24.30
24.16
24.19
24.64
25.56
26.84
28.19
29.26
29.76
29.59
28.87
27.80
26.54
25.11
23.42
21.42
19.13
16.72
14.37
12.15
10.01
7.80
5.32
2.47
-0.76
-4.27
-7.89
-11.40
-14.60
-17.36
-19.72
-21.92
-24.33
-27.40
-31.47
-36.66
-42.75
-49.19
-55.08
-59.30
-60.85
-59.06
-53.88
-45.89
-36.20
-26.01
-16.31
-7.67
-0.23
6.13
11.56
16.12
19.75
22.43
24.22
25.31
25.98
26.46
26.88
27.28
27.62
27.86
28.04
28.22
28.46
28.70
28.84
28.69
28.07
26.88
25.10
22.80
20.07
17.06
13.95
10.94
8.19
5.72
3.43
1.06
-1.66
-4.89
-8.59
-12.50
-16.30
-19.72
-22.67
-25.32
-27.99
-31.07
-34.87
-39.50
-44.84
-50.42
-55.51
-59.18
-60.49
-58.76
-53.78
-45.96
-36.20
-25.64
-15.34
-6.04
1.93
8.50
13.75
17.77
20.61
22.36
23.25
23.61
23.82
24.23
25.01
26.09
27.24
28.18
28.68
28.66
28.23
27.64
27.10
26.71
26.35
25.72
24.49
22.46
19.72
16.62
13.57
10.91
8.64
6.55
4.31
1.67
-1.43
-4.83
-8.28
-11.59
-14.64
-17.46
-20.17
-22.98
-26.18
-30.06
-34.79
-40.22
-45.79
-50.54
-53.37
-53.36
-50.09
-43.79
-35.28
-25.68
-16.01
-7.02
1.01
8.10
14.35
19.69
23.91
26.72
28.06
28.16
27.60
26.99
26.77
27.06
27.74
28.56
29.37
30.14
30.84
31.38
31.55
31.11
29.93
28.01
25.53
22.69
19.70
16.68
13.71
10.81
7.94
5.03
1.93
-1.48
-5.23
-9.22
-13.23
-17.03
-20.48
-23.62
-26.68
-30.06
-34.16
-39.23
-45.20
-51.58
-57.44
-61.61
-62.97
-60.77
-54.94
-46.08
-35.37
-24.11
-13.46
-4.14
3.63
9.95
15.07
19.22
22.55
25.13
27.04
28.41
29.41
30.19
30.88
31.57
32.24
32.85
33.32
33.57
33.54
33.24
32.76
32.13
31.32
30.16
28.40
25.85
22.48
18.55
14.47
10.66
7.28
4.22
1.13
-2.26
-6.01
-9.90
-13.58
-16.79
-19.55
-22.19
-25.22
-29.14
-34.20
-40.38
-47.21
-53.90
-59.34
-62.36
-62.03
-57.92
-50.33
-40.23
-28.97
-17.91
-8.02
0.28
7.08
12.77
17.74
22.22
26.20
29.51
31.99
33.59
34.42
34.70
34.66
34.50
34.37
34.35
34.52
34.83
35.21
35.46
35.32
34.60
33.14
30.90
27.96
24.50
20.81
17.28
14.21
11.75
9.74
7.74
5.25
1.88
-2.33
-7.05
-11.75
-15.99
-19.63
-22.79
-25.83
-29.14
-33.07
-37.84
-43.40
-49.38
-54.98
-59.08
-60.51
-58.48
-52.87
-44.33
-34.00
-23.16
-12.81
-3.46
4.72
11.79
17.78
22.68
26.42
29.01
30.57
31.36
31.69
31.81
31.94
32.17
32.52
32.96
33.40
33.74
33.90
33.79
33.33
32.41
30.94
28.85
26.11
22.86
19.37
15.97
12.94
10.39
8.14
5.85
3.13
-0.18
-4.01
-8.10
-12.12
-15.86
-19.31
-22.61
-25.94
-29.50
-33.46
-37.96
-43.05
-48.50
-53.74
-57.75
-59.45
-57.96
-52.99
-44.99
-34.96
-24.15
-13.64
-4.16
4.04
10.99
16.85
21.75
25.71
28.68
30.57
31.44
31.45
30.94
30.31
29.90
29.92
30.42
31.27
32.24
33.09
33.58
33.50
32.72
31.14
28.77
25.69
22.12
18.40
14.88
11.85
9.36
7.17
4.82
1.88
-1.88
-6.37
-11.19
-15.86
-20.03
-23.53
-26.49
-29.21
-32.16
-35.81
-40.48
-46.09
-51.97
-56.94
-59.56
-58.69
-53.93
-45.72
-35.23
-23.90
-12.97
-3.19
5.10
11.94
17.44
21.73
24.88
26.97
28.13
28.60
28.70
28.79
29.09
29.70
30.49
31.27
31.80
32.01
31.98
31.80
31.51
30.96
29.87
27.98
25.21
21.76
18.05
14.56
11.62
9.28
7.27
5.15
2.47
-1.01
-5.23
-9.87
-14.51
-18.74
-22.39
-25.54
-28.47
-31.63
-35.47
-40.26
-46.05
-52.46
-58.64
-63.42
-65.54
-64.06
-58.67
-49.92
-39.00
-27.37
-16.29
-6.47
1.90
9.03
15.14
20.32
24.49
27.53
29.49
30.60
31.26
31.86
32.63
33.59
34.57
35.32
35.69
35.64
35.27
34.74
34.14
33.46
32.54
31.12
29.01
26.16
22.75
19.13
15.70
12.71
10.20
7.98
5.70
2.99
-0.33
-4.24
-8.55
-12.97
-17.18
-20.95
-24.17
-26.95
-29.62
-32.68
-36.69
-41.97
-48.36
-55.12
-60.97
-64.46
-64.40
-60.24
-52.24
-41.45
-29.34
-17.39
-6.71
2.16
9.21
14.77
19.18
22.64
25.25
27.13
28.54
29.84
31.31
33.04
34.77
36.11
36.72
36.54
35.78
34.83
34.00
33.45
33.11
32.77
32.15
30.97
29.04
26.27
22.79
18.87
14.91
11.22
7.93
4.99
2.17
-0.76
-3.97
-7.46
-11.12
-14.76
-18.23
-21.48
-24.56
-27.70
-31.18
-35.30
-40.22
-45.88
-51.87
-57.41
-61.47
-62.97
-61.09
-55.61
-47.00
-36.35
-25.01
-14.18
-4.55
3.67
10.66
16.60
21.55
25.37
27.94
29.32
29.84
30.03
30.37
31.15
32.32
33.60
34.61
35.16
35.20
34.88
34.36
33.67
32.68
31.18
29.03
26.32
23.34
20.46
17.93
15.76
13.71
11.43
8.60
5.11
1.08
-3.19
-7.36
-11.17
-14.54
-17.55
-20.45
-23.53
-27.07
-31.29
-36.31
-42.09
-48.28
-54.15
-58.62
-60.50
-58.87
-53.44
-44.74
-33.94
-22.51
-11.74
-2.39
5.33
11.63
16.81
21.10
24.55
27.12
28.78
29.64
29.94
30.02
30.16
30.47
30.91
31.30
31.45
31.27
30.85
30.33
29.88
29.50
29.00
28.10
26.50
24.09
20.98
17.50
14.09
11.04
8.44
6.07
3.56
0.58
-3.01
-7.10
-11.32
-15.33
-18.90
-22.06
-25.03
-28.13
-31.64
-35.78
-40.65
-46.21
-52.19
-57.95
-62.48
-64.61
-63.28
-58.07
-49.36
-38.32
-26.54
-15.43
-5.91
1.88
8.26
13.71
18.51
22.64
25.88
28.04
29.17
29.55
29.65
29.85
30.34
31.08
31.87
32.49
32.83
32.87
32.68
32.31
31.70
30.70
29.18
27.00
24.18
20.85
17.29
13.81
10.65
7.91
5.51
3.18
0.60
-2.45
-6.04
-10.02
-14.13
-18.01
-21.43
-24.30
-26.73
-29.02
-31.61
-34.99
-39.46
-45.00
-51.11
-56.85
-60.94
-62.20
-59.89
-53.96
-45.09
-34.47
-23.43
-13.02
-3.88
3.86
10.34
15.76
20.25
23.84
26.50
28.31
29.43
30.15
30.72
31.29
31.86
32.36
32.65
32.69
32.54
32.29
32.03
31.74
31.29
30.47
29.06
26.96
24.25
21.12
17.81
14.50
11.29
8.17
5.11
2.05
-1.10
-4.36
-7.72
-11.07
-14.24
-17.07
-19.61
-22.18
-25.29
-29.44
-34.89
-41.42
-48.31
-54.41
-58.52
-59.63
-57.21
-51.33
-42.72
-32.54
-22.02
-12.17
-3.51
3.93
10.35
15.94
20.69
24.43
26.99
28.39
28.89
28.92
28.87
28.99
29.32
29.77
30.20
30.51
30.66
30.65
30.46
30.06
29.34
28.15
26.35
23.85
20.74
17.23
13.68
10.38
7.51
4.95
2.45
-0.36
-3.73
-7.68
-11.95
-16.16
-19.96
-23.16
-25.88
-28.46
-31.36
-35.07
-39.91
-45.86
-52.53
-59.04
-64.16
-66.61
-65.38
-60.18
-51.50
-40.54
-28.81
-17.61
-7.78
0.48
7.33
13.06
17.86
21.83
25.00
27.48
29.47
31.19
32.74
34.07
35.03
35.49
35.41
34.89
34.13
33.35
32.74
32.40
32.27
32.16
31.69
30.44
28.13
24.78
20.71
16.47
12.59
9.36
6.75
4.44
2.02
-0.85
-4.27
-8.15
-12.20
-16.14
-19.75
-22.99
-26.04
-29.26
-33.07
-37.80
-43.53
-49.92
-56.16
-61.09
-63.51
-62.53
-57.87
-50.02
-40.05
-29.27
-18.78
-9.24
-0.86
6.47
12.88
18.41
22.98
26.52
29.00
30.53
31.36
31.76
32.03
32.35
32.80
33.31
33.76
34.08
34.25
34.37
34.50
34.55
34.23
33.16
31.07
27.92
24.05
20.00
16.30
13.25
10.83
8.69
6.34
3.39
-0.29
-4.52
-8.94
-13.09
-16.69
-19.69
-22.31
-24.89
-27.81
-31.43
-35.98
-41.50
-47.71
-53.87
-58.84
-61.29
-60.14
-54.99
-46.32
-35.40
-23.82
-12.92
-3.48
4.34
10.79
16.20
20.75
24.42
27.18
29.05
30.24
31.04
31.73
32.48
33.24
33.82
34.03
33.81
33.26
32.64
32.19
32.00
31.90
31.56
30.60
28.67
25.66
21.69
17.10
12.39
8.13
4.78
2.51
1.13
0.15
-1.11
-3.16
-6.20
-10.04
-14.25
-18.39
-22.18
-25.61
-28.92
-32.44
-36.55
-41.47
-47.20
-53.31
-58.96
-63.08
-64.55
-62.61
-57.16
-48.78
-38.54
-27.66
-17.17
-7.69
0.60
7.76
13.95
19.25
23.61
26.91
29.17
30.55
31.38
32.03
32.76
33.61
34.45
35.06
35.30
35.11
34.52
33.61
32.45
31.04
29.40
27.55
25.49
23.26
20.86
18.35
15.77
13.15
10.46
7.65
4.65
1.43
-1.95
-5.37
-8.72
-11.90
-14.90
-17.77
-20.58
-23.50
-26.76
-30.59
-35.18
-40.56
-46.54
-52.65
-58.16
-62.19
-63.85
-62.45
-57.76
-50.21
-40.77
-30.65
-20.90
-12.10
-4.25
2.89
9.54
15.65
20.93
25.06
27.94
29.66
30.51
30.82
30.87
30.90
31.11
31.62
32.41
33.32
34.08
34.46
34.37
33.82
32.89
31.58
29.85
27.58
24.78
21.63
18.42
15.49
12.94
10.71
8.51
6.02
3.03
-0.48
-4.27
-8.04
-11.50
-14.56
-17.34
-20.07
-23.03
-26.50
-30.69
-35.84
-41.99
-48.86
-55.65
-61.07
-63.67
-62.34
-56.79
-47.73
-36.58
-24.97
-14.19
-4.87
2.96
9.61
15.32
20.14
24.02
26.89
28.85
30.19
31.24
32.24
33.26
34.17
34.75
34.83
34.37
33.52
32.52
31.63
30.99
30.58
30.21
29.57
28.34
26.32
23.51
20.15
16.64
13.34
10.47
8.00
5.69
3.23
0.40
-2.86
-6.47
-10.32
-14.34
-18.49
-22.78
-27.13
-31.46
-35.71
-39.96
-44.45
-49.38
-54.74
-60.06
-64.44
-66.79
-66.12
-61.97
-54.57
-44.70
-33.50
-22.11
-11.39
-1.88
6.22
12.94
18.33
22.45
25.35
27.16
28.15
28.71
29.27
30.14
31.41
32.90
34.29
35.24
35.54
35.16
34.25
33.05
31.76
30.49
29.21
27.77
25.99
23.75
21.06
18.10
15.10
12.21
9.47
6.72
3.75
0.39
-3.37
-7.36
-11.35
-15.10
-18.52
-21.67
-24.76
-28.08
-31.89
-36.40
-41.71
-47.69
-53.89
-59.52
-63.51
-64.78
-62.59
-56.79
-47.96
-37.22
-25.88
-15.06
-5.44
2.81
9.86
15.99
21.36
25.91
29.50
31.98
33.37
33.92
34.00
33.97
34.04
34.28
34.63
35.01
35.39
35.76
36.07
36.13
35.67
34.43
32.27
29.23
25.63
21.89
18.39
15.37
12.79
10.42
7.87
4.84
1.17
-3.03
-7.49
-11.86
-15.84
-19.34
-22.45
-25.49
-28.91
-33.16
-38.52
-44.87
-51.59
-57.58
-61.52
-62.30
-59.35
-52.81
-43.55
-32.78
-21.70
-11.21
-1.81
6.39
13.42
19.32
24.07
27.64
30.03
31.43
32.17
32.65
33.21
34.01
34.99
35.96
36.66
36.95
36.81
36.33
35.59
34.65
33.45
31.83
29.69
26.98
23.81
20.40
17.02
13.92
11.22
8.83
6.54
3.99
0.89
-2.96
-7.46
-12.29
-17.03
-21.28
-24.92
-28.14
-31.35
-35.07
-39.71
-45.39
-51.84
-58.41
-64.11
-67.79
-68.45
-65.51
-59.05
-49.80
-38.94
-27.71
-17.10
-7.61
0.64
7.80
14.07
19.55
24.21
28.00
30.86
32.80
33.98
34.66
35.15
35.72
36.50
37.42
38.28
38.85
38.98
38.69
38.03
37.05
35.70
33.85
31.38
28.34
24.96
21.60
18.56
15.99
13.76
11.52
8.91
5.63
1.65
-2.80
-7.30
-11.44
-14.99
-18.02
-20.92
-24.15
-28.17
-33.20
-39.17
-45.75
-52.33
-58.09
-62.07
-63.32
-61.19
-55.60
-47.08
-36.69
-25.65
-15.02
-5.46
2.80
9.78
15.58
20.29
23.99
26.83
28.98
30.66
32.01
33.05
33.78
34.22
34.47
34.63
34.80
34.94
34.95
34.66
33.92
32.67
30.89
28.60
25.85
22.72
19.34
15.89
12.56
9.46
6.55
3.68
0.61
-2.83
-6.61
-10.52
-14.32
-17.80
-21.04
-24.32
-28.07
-32.62
-38.06
-44.06
-49.97
-54.88
-57.83
-58.05
-55.13
-49.18
-40.81
-30.98
-20.75
-10.99
-2.20
5.44
11.98
17.49
21.96
25.35
27.70
29.18
30.10
30.78
31.45
32.16
32.88
33.48
33.86
33.95
33.71
33.07
32.02
30.53
28.62
26.31
23.63
20.61
17.32
13.91
10.59
7.50
4.66
1.88
-1.16
-4.77
-9.06
-13.87
-18.81
-23.46
-27.54
-31.06
-34.37
-38.04
-42.57
-48.26
-54.92
-61.88
-68.06
-72.32
-73.68
-71.67
-66.41
-58.62
-49.32
-39.61
-30.40
-22.22
-15.18
-9.11
-3.68
1.40
6.31
11.11
15.79
20.36
24.88
29.40
33.91
38.30
42.36
45.85
48.58
50.44
51.44
51.63
51.12
49.94
48.12
45.63
42.53
38.96
35.14
31.36
27.83
24.59
21.52
18.36
14.91
11.13
7.14
3.11
-0.79
-4.54
-8.24
-12.02
-16.07
-20.56
-25.59
-31.18
-37.01
-42.48
-46.69
-48.74
-48.02
-44.47
-38.56
-31.19
-23.30
-15.63
-8.56
-2.13
3.79
9.34
14.48
19.06
22.82
25.59
27.34
28.19
28.37
28.11
27.66
27.15
26.78
26.72
27.06
27.77
28.63
29.25
29.20
28.16
26.02
22.95
19.32
15.59
12.16
9.28
6.94
4.91
2.84
0.40
-2.57
-6.00
-9.67
-13.32
-16.83
-20.22
-23.68
-27.45
-31.72
-36.51
-41.61
-46.53
-50.51
-52.69
-52.35
-49.10
-43.10
-35.02
-25.86
-16.63
-8.11
-0.68
5.61
10.90
15.38
19.16
22.23
24.58
26.22
27.25
27.82
28.16
28.41
28.65
28.83
28.87
28.71
28.36
27.89
27.37
26.77
25.91
24.60
22.66
20.09
17.07
13.89
10.76
7.77
4.85
1.81
-1.44
-4.90
-8.42
-11.77
-14.77
-17.38
-19.75
-22.19
-25.11
-28.90
-33.80
-39.80
-46.46
-52.93
-58.06
-60.64
-59.81
-55.32
-47.75
-38.26
-28.28
-18.94
-10.85
-4.00
2.00
7.51
12.71
17.49
21.61
24.86
27.19
28.68
29.54
29.95
30.13
30.26
30.47
30.84
31.31
31.78
32.09
32.09
31.71
30.89
29.60
27.78
25.39
22.49
19.24
15.91
12.80
10.11
7.86
5.85
3.76
1.27
-1.78
-5.32
-9.11
-12.81
-16.19
-19.21
-22.05
-25.00
-28.37
-32.43
-37.30
-42.86
-48.68
-53.95
-57.67
-58.82
-56.74
-51.44
-43.59
-34.29
-24.71
-15.68
-7.62
-0.53
5.69
11.14
15.75
19.37
21.95
23.61
24.64
25.42
26.25
27.27
28.38
29.39
30.09
30.35
30.14
29.53
28.66
27.70
26.81
26.14
25.70
25.34
24.73
23.49
21.36
18.36
14.80
11.19
7.93
5.26
3.09
1.14
-0.90
-3.21
-5.80
-8.58
-11.39
-14.15
-16.86
-19.63
-22.56
-25.77
-29.35
-33.31
-37.61
-42.10
-46.45
-50.14
-52.50
-52.83
-50.61
-45.74
-38.62
-30.04
-21.00
-12.37
-4.66
1.99
7.69
12.67
17.01
20.69
23.58
25.56
26.60
26.81
26.42
25.79
25.32
25.31
25.88
26.86
27.87
28.52
28.54
27.94
26.92
25.71
24.43
23.03
21.37
19.32
16.91
14.31
11.71
9.28
7.10
5.06
3.02
0.80
-1.74
-4.62
-7.73
-10.90
-13.99
-16.92
-19.81
-22.83
-26.15
-29.92
-34.21
-38.98
-44.13
-49.29
-53.89
-57.13
-58.16
-56.38
-51.66
-44.48
-35.75
-26.57
-17.89
-10.26
-3.81
1.73
6.71
11.39
15.83
19.80
22.98
25.15
26.31
26.70
26.66
26.56
26.62
26.92
27.49
28.26
29.14
30.00
30.60
30.72
30.15
28.80
26.69
24.00
20.99
18.04
15.51
13.62
12.37
11.49
10.55
9.12
6.99
4.11
0.71
-2.97
-6.69
-10.30
-13.71
-16.87
-19.74
-22.35
-24.87
-27.51
-30.62
-34.52
-39.45
-45.38
-51.96
-58.37
-63.47
-66.08
-65.33
-61.00
-53.61
-44.22
-34.07
-24.22
-15.31
-7.55
-0.86
4.96
10.09
14.60
18.50
21.74
24.25
26.10
27.42
28.44
29.40
30.43
31.55
32.68
33.74
34.70
35.54
36.23
36.63
36.48
35.55
33.77
31.27
28.35
25.40
22.74
20.52
18.72
17.13
15.50
13.59
11.25
8.47
5.35
2.04
-1.31
-4.62
-7.84
-10.98
-14.06
-17.14
-20.28
-23.57
-27.10
-30.92
-35.04
-39.53
-44.45
-49.81
-55.32
-60.33
-63.84
-64.80
-62.51
-56.89
-48.59
-38.73
-28.51
-18.88
-10.30
-2.83
3.72
9.58
14.86
19.53
23.46
26.55
28.77
30.25
31.21
31.88
32.46
33.01
33.56
34.10
34.68
35.35
36.09
36.80
37.24
37.11
36.19
34.41
31.93
29.02
26.10
23.50
21.35
19.54
17.78
15.75
13.31
10.54
7.63
4.76
1.94
-1.00
-4.23
-7.80
-11.58
-15.35
-18.93
-22.31
-25.62
-29.04
-32.73
-36.83
-41.47
-46.66
-52.15
-57.34
-61.30
-62.96
-61.55
-56.89
-49.44
-40.16
-30.13
-20.24
-11.02
-2.66
4.81
11.42
17.15
21.91
25.63
28.27
29.90
30.69
30.93
30.95
31.07
31.46
32.25
33.42
34.85
36.35
37.63
38.39
38.36
37.44
35.72
33.42
30.83
28.23
25.82
23.70
21.90
20.34
18.83
17.11
14.91
12.09
8.74
5.15
1.70
-1.33
-3.80
-5.86
-7.78
-9.96
-12.67
-16.03
-19.92
-24.06
-28.15
-32.01
-35.70
-39.52
-43.82
-48.82
-54.42
-60.10
-65.03
-68.22
-68.80
-66.19
-60.35
-51.73
-41.28
-30.11
-19.23
-9.31
-0.63
6.81
13.09
18.21
22.19
25.06
26.99
28.29
29.30
30.28
31.36
32.56
33.83
35.09
36.25
37.20
37.81
37.97
37.62
36.80
35.59
34.09
32.40
30.56
28.62
26.56
24.38
22.05
19.54
16.84
13.98
11.02
8.06
5.16
2.40
-0.19
-2.67
-5.16
-7.80
-10.79
-14.22
-18.03
-22.03
-25.94
-29.59
-32.97
-36.31
-40.01
-44.39
-49.49
-54.95
-59.97
-63.47
-64.40
-62.05
-56.25
-47.45
-36.61
-24.93
-13.55
-3.31
5.30
12.15
17.38
21.23
23.98
25.91
27.26
28.23
29.01
29.80
30.78
32.04
33.56
35.15
36.51
37.34
37.47
36.93
35.89
34.56
33.04
31.36
29.46
27.28
24.83
22.18
19.41
16.58
13.76
10.98
8.26
5.52
2.63
-0.54
-4.00
-7.66
-11.31
-14.71
-17.79
-20.62
-23.41
-26.45
-29.98
-34.16
-39.10
-44.79
-51.02
-57.31
-62.80
-66.42
-67.14
-64.33
-57.98
-48.77
-37.91
-26.73
-16.33
-7.31
0.20
6.45
11.77
16.37
20.34
23.63
26.24
28.20
29.68
30.86
31.84
32.68
33.36
33.82
34.06
34.12
34.09
34.00
33.89
33.69
33.31
32.62
31.52
29.91
27.78
25.16
22.11
18.79
15.37
12.03
8.89
5.97
3.19
0.37
-2.67
-6.04
-9.74
-13.63
-17.53
-21.30
-24.90
-28.46
-32.20
-36.38
-41.22
-46.84
-53.11
-59.55
-65.31
-69.25
-70.28
-67.64
-61.26
-51.83
-40.57
-28.91
-18.04
-8.65
-0.88
5.55
11.06
16.01
20.50
24.51
27.88
30.54
32.51
33.90
34.89
35.60
36.14
36.56
36.93
37.26
37.56
37.72
37.58
36.98
35.86
34.18
32.00
29.41
26.47
23.31
20.10
17.02
14.21
11.70
9.41
7.12
4.61
1.70
-1.68
-5.50
-9.54
-13.49
-17.07
-20.11
-22.79
-25.50
-28.85
-33.34
-39.16
-46.03
-53.16
-59.49
-63.82
-65.14
-62.85
-56.95
-48.06
-37.33
-26.12
-15.58
-6.46
1.13
7.46
12.96
17.90
22.34
26.09
29.00
31.00
32.27
33.08
33.69
34.30
34.93
35.48
35.85
35.98
35.94
35.87
35.88
35.92
35.79
35.12
33.61
31.12
27.83
24.13
20.55
17.48
15.08
13.22
11.57
9.74
7.41
4.42
0.80
-3.27
-7.49
-11.59
-15.42
-19.02
-22.61
-26.49
-30.97
-36.16
-41.90
-47.70
-52.80
-56.27
-57.26
-55.26
-50.26
-42.73
-33.52
-23.57
-13.72
-4.54
3.63
10.65
16.46
21.09
24.59
27.09
28.75
29.75
30.35
30.81
31.39
32.21
33.23
34.24
35.01
35.36
35.30
34.96
34.43
33.70
32.60
30.93
28.59
25.68
22.50
19.37
16.55
14.12
11.96
9.86
7.58
4.95
1.91
-1.44
-4.95
-8.45
-11.81
-15.04
-18.21
-21.43
-24.85
-28.64
-32.96
-37.91
-43.38
-49.01
-54.10
-57.80
-59.26
-57.97
-53.85
-47.32
-39.17
-30.32
-21.58
-13.49
-6.23
0.31
6.35
12.04
17.34
22.01
25.81
28.53
30.18
30.94
31.07
30.90
30.76
30.99
31.77
33.12
34.80
36.32
37.15
36.93
35.60
33.41
30.78
28.13
25.76
23.76
22.09
20.61
19.16
17.56
15.69
13.49
10.94
8.11
5.08
1.93
-1.25
-4.36
-7.40
-10.37
-13.33
-16.37
-19.52
-22.77
-26.08
-29.47
-33.10
-37.23
-42.09
-47.61
-53.26
-58.08
-60.92
-60.85
-57.50
-51.27
-43.11
-34.22
-25.59
-17.79
-10.88
-4.60
1.31
6.94
12.18
16.76
20.47
23.21
25.08
26.32
27.20
27.96
28.79
29.76
30.86
31.97
32.98
33.74
34.15
34.15
33.65
32.62
31.04
29.02
26.74
24.49
22.53
20.97
19.72
18.53
17.13
15.32
13.10
10.57
7.90
5.23
2.72
0.49
-1.41
-3.07
-4.72
-6.69
-9.26
-12.50
-16.22
-20.06
-23.65
-26.81
-29.61
-32.34
-35.33
-38.87
-43.03
-47.60
-52.03
-55.51
-57.16
-56.32
-52.77
-46.82
-39.24
-30.96
-22.80
-15.24
-8.44
-2.36
3.10
8.00
12.32
16.03
19.07
21.42
23.11
24.23
24.96
25.50
26.03
26.66
27.43
28.26
29.10
29.88
30.55
30.97
30.95
30.24
28.72
26.49
23.88
21.39
19.44
18.21
17.54
17.06
16.34
15.12
13.31
11.00
8.36
5.58
2.83
0.25
-2.09
-4.24
-6.37
-8.74
-11.56
-14.83
-18.36
-21.79
-24.82
-27.30
-29.42
-31.55
-34.11
-37.43
-41.60
-46.40
-51.33
-55.69
-58.73
-59.77
-58.37
-54.41
-48.14
-40.18
-31.36
-22.59
-14.62
-7.88
-2.41
2.10
6.11
10.01
13.92
17.68
20.94
23.41
25.02
25.93
26.43
26.81
27.22
27.71
28.25
28.86
29.55
30.29
30.93
31.19
30.76
29.49
27.48
25.09
22.77
20.88
19.55
18.64
17.83
16.78
15.23
13.15
10.69
8.09
5.60
3.32
1.26
-0.75
-2.89
-5.35
-8.22
-11.48
-14.98
-18.51
-21.84
-24.85
-27.56
-30.11
-32.80
-35.95
-39.81
-44.41
-49.45
-54.30
-58.08
-59.84
-58.87
-54.92
-48.32
-39.92
-30.78
-21.88
-13.87
-6.95
-1.01
4.17
8.79
12.91
16.52
19.59
22.15
24.30
26.12
27.67
28.91
29.75
30.14
30.20
30.14
30.25
30.73
31.56
32.50
33.19
33.30
32.67
31.28
29.28
26.89
24.30
21.71
19.27
17.06
15.12
13.36
11.70
10.05
8.33
6.47
4.34
1.81
-1.23
-4.74
-8.52
-12.25
-15.65
-18.57
-21.06
-23.33
-25.64
-28.28
-31.50
-35.50
-40.31
-45.69
-51.02
-55.38
-57.80
-57.48
-54.11
-47.97
-39.80
-30.65
-21.53
-13.25
-6.18
-0.30
4.67
9.10
13.20
16.99
20.29
22.95
24.89
26.22
27.18
28.01
28.84
29.69
30.54
31.33
32.02
32.58
32.94
33.03
32.76
32.03
30.80
29.09
26.95
24.53
22.02
19.62
17.45
15.56
13.90
12.30
10.59
8.59
6.18
3.32
0.06
-3.46
-7.05
-10.48
-13.61
-16.38
-18.89
-21.37
-24.18
-27.69
-32.12
-37.36
-42.83
-47.60
-50.55
-50.80
-47.97
-42.35
-34.76
-26.26
-17.79
-9.99
-3.11
2.84
7.95
12.33
16.06
19.18
21.75
23.83
25.51
26.85
27.92
28.76
29.33
29.62
29.62
29.36
28.92
28.43
27.99
27.60
27.17
26.54
25.51
23.86
21.50
18.49
15.08
11.64
8.54
5.99
3.90
2.01
-0.04
-2.46
-5.26
-8.28
-11.32
-14.29
-17.23
-20.24
-23.44
-26.87
-30.63
-34.78
-39.30
-43.95
-48.15
-51.11
-52.01
-50.30
-45.97
-39.54
-31.82
-23.71
-15.89
-8.73
-2.31
3.43
8.52
12.90
16.42
18.98
20.70
21.85
22.88
24.13
25.72
27.47
29.05
30.14
30.58
30.34
29.51
28.28
26.82
25.30
23.91
22.68
21.52
20.23
18.65
16.73
14.63
12.47
10.29
7.94
5.20
1.95
-1.66
-5.26
-8.49
-11.13
-13.26
-15.17
-17.21
-19.75
-23.07
-27.36
-32.63
-38.59
-44.56
-49.58
-52.55
-52.64
-49.54
-43.57
-35.62
-26.93
-18.65
-11.60
-6.01
-1.65
2.09
5.76
9.68
13.82
17.85
21.38
24.14
26.00
27.01
27.33
27.16
26.72
26.22
25.86
25.79
26.06
26.58
27.16
27.49
27.16
25.81
23.32
19.95
16.24
12.88
10.34
8.68
7.49
6.18
4.25
1.58
-1.73
-5.38
-9.13
-12.81
-16.35
-19.64
-22.67
-25.54
-28.47
-31.73
-35.39
-39.17
-42.43
-44.39
-44.37
-42.05
-37.57
-31.44
-24.41
-17.22
-10.44
-4.37
1.00
5.82
10.22
14.18
17.56
20.23
22.18
23.63
24.88
26.15
27.48
28.71
29.64
30.13
30.13
29.70
28.89
27.81
26.54
25.20
23.87
22.52
21.04
19.33
17.40
15.38
13.42
11.51
9.48
7.05
4.02
0.48
-3.26
-6.78
-9.81
-12.31
-14.52
-16.71
-19.20
-22.20
-25.81
-29.99
-34.55
-39.09
-43.05
-45.76
-46.57
-45.13
-41.41
-35.81
-29.10
-22.22
-15.93
-10.63
-6.25
-2.35
1.56
5.75
10.10
14.25
17.76
20.37
22.02
22.83
23.03
22.84
22.54
22.39
22.63
23.31
24.29
25.24
25.77
25.66
24.82
23.36
21.48
19.40
17.26
15.24
13.47
12.03
10.90
9.96
8.98
7.72
5.99
3.74
1.01
-2.02
-5.15
-8.11
-10.72
-12.92
-14.78
-16.52
-18.39
-20.62
-23.43
-26.94
-31.12
-35.74
-40.30
-44.03
-46.12
-45.91
-43.19
-38.26
-31.82
-24.74
-17.82
-11.56
-6.17
-1.58
2.39
5.98
9.29
12.35
15.09
17.39
19.21
20.58
21.59
22.32
22.83
23.14
23.30
23.34
23.33
23.34
23.31
23.17
22.79
22.12
21.17
19.99
18.67
17.21
15.59
13.76
11.74
9.58
7.46
5.49
3.77
2.23
0.71
-1.03
-3.19
-5.84
-8.92
-12.21
-15.47
-18.49
-21.19
-23.64
-26.08
-28.81
-32.17
-36.26
-40.87
-45.41
-49.05
-50.93
-50.50
-47.63
-42.67
-36.31
-29.32
-22.38
-15.98
-10.34
-5.44
-1.19
2.62
6.14
9.44
12.48
15.18
17.46
19.35
20.95
22.36
23.64
24.81
25.82
26.67
27.37
27.98
28.49
28.85
28.93
28.58
27.69
26.21
24.21
21.89
19.47
17.17
15.17
13.48
12.00
10.53
8.95
7.21
5.36
3.47
1.55
-0.53
-2.93
-5.77
-8.99
-12.42
-15.78
-18.93
-21.86
-24.73
-27.79
-31.26
-35.29
-39.90
-44.84
-49.61
-53.44
-55.42
-54.80
-51.28
-45.14
-37.25
-28.70
-20.50
-13.23
-7.03
-1.72
3.00
7.32
11.28
14.83
17.93
20.55
22.78
24.69
26.33
27.71
28.78
29.53
29.98
30.19
30.26
30.32
30.44
30.63
30.79
30.75
30.29
29.29
27.78
25.95
24.12
22.51
21.20
20.04
18.76
17.11
15.04
12.63
10.13
7.70
5.41
3.18
0.86
-1.69
-4.51
-7.59
-10.86
-14.27
-17.73
-21.17
-24.54
-27.86
-31.23
-34.83
-38.86
-43.37
-48.14
-52.61
-55.97
-57.37
-56.20
-52.29
-46.02
-38.17
-29.67
-21.38
-13.81
-7.12
-1.21
4.10
8.96
13.37
17.25
20.46
22.95
24.73
25.93
26.75
27.37
27.98
28.69
29.55
30.56
31.66
32.78
33.84
34.72
35.26
35.28
34.62
33.27
31.38
29.28
27.31
25.72
24.52
23.49
22.37
20.90
19.00
16.72
14.21
11.64
9.15
6.84
4.75
2.82
0.87
-1.33
-4.00
-7.23
-10.96
-14.95
-18.91
-22.59
-25.83
-28.63
-31.18
-33.80
-36.88
-40.76
-45.56
-51.02
-56.44
-60.81
-63.02
-62.21
-58.08
-50.95
-41.69
-31.46
-21.42
-12.38
-4.76
1.42
6.46
10.71
14.51
18.02
21.29
24.21
26.65
28.58
30.01
31.10
31.95
32.65
33.19
33.52
33.62
33.56
33.47
33.47
33.55
33.54
33.16
32.15
30.47
28.28
25.91
23.70
21.83
20.29
18.86
17.28
15.38
13.10
10.57
7.96
5.49
3.20
1.05
-1.16
-3.63
-6.52
-9.84
-13.45
-17.14
-20.70
-24.03
-27.17
-30.23
-33.44
-37.05
-41.30
-46.27
-51.80
-57.30
-61.86
-64.40
-64.01
-60.32
-53.61
-44.76
-34.93
-25.23
-16.39
-8.69
-2.06
3.73
8.87
13.43
17.41
20.77
23.55
25.85
27.78
29.38
30.65
31.56
32.13
32.50
32.84
33.37
34.19
35.19
36.12
36.59
36.24
34.88
32.55
29.54
26.32
23.41
21.21
19.80
18.93
18.15
16.97
15.08
12.49
9.47
6.37
3.48
0.93
-1.36
-3.55
-5.83
-8.35
-11.19
-14.35
-17.77
-21.35
-25.01
-28.72
-32.53
-36.64
-41.18
-46.12
-51.10
-55.42
-58.12
-58.39
-55.72
-50.24
-42.60
-33.81
-24.84
-16.40
-8.79
-2.02
3.99
9.28
13.77
17.39
20.16
22.24
23.84
25.16
26.31
27.32
28.22
29.07
29.93
30.87
31.88
32.90
33.78
34.35
34.44
33.88
32.58
30.57
28.06
25.36
22.82
20.63
18.80
17.15
15.43
13.46
11.18
8.69
6.12
3.51
0.86
-1.94
-4.97
-8.28
-11.84
-15.52
-19.18
-22.74
-26.19
-29.68
-33.41
-37.63
-42.48
-47.89
-53.52
-58.74
-62.67
-64.41
-63.26
-58.98
-51.86
-42.70
-32.58
-22.54
-13.37
-5.43
1.29
7.04
12.09
16.60
20.59
23.95
26.57
28.41
29.67
30.62
31.59
32.76
34.11
35.43
36.50
37.14
37.33
37.12
36.57
35.64
34.23
32.26
29.81
27.11
24.49
22.26
20.53
19.17
17.83
16.13
13.79
10.78
7.34
3.84
0.63
-2.17
-4.65
-7.10
-9.78
-12.79
-16.03
-19.29
-22.43
-25.46
-28.59
-32.09
-36.15
-40.80
-45.89
-51.07
-55.83
-59.51
-61.36
-60.70
-57.12
-50.73
-42.17
-32.44
-22.60
-13.43
-5.30
1.82
8.13
13.79
18.81
23.07
26.45
28.95
30.67
31.83
32.69
33.46
34.26
35.10
35.92
36.59
37.01
37.07
36.75
36.05
35.03
33.78
32.40
30.92
29.32
27.51
25.36
22.82
19.97
17.04
14.27
11.83
9.70
7.67
5.49
2.97
0.08
-3.11
-6.41
-9.71
-12.98
-16.29
-19.78
-23.59
-27.83
-32.54
-37.66
-43.02
-48.31
-53.06
-56.62
-58.29
-57.43
-53.75
-47.43
-39.17
-29.98
-20.87
-12.55
-5.28
1.02
6.62
11.70
16.29
20.34
23.76
26.50
28.63
30.24
31.43
32.31
32.99
33.56
34.06
34.51
34.86
35.03
34.96
34.59
33.86
32.78
31.33
29.59
27.65
25.65
23.75
22.01
20.40
18.74
16.80
14.39
11.48
8.27
5.05
2.11
-0.49
-2.90
-5.42
-8.29
-11.56
-15.06
-18.57
-21.94
-25.17
-28.42
-31.88
-35.71
-40.03
-44.88
-50.12
-55.33
-59.75
-62.41
-62.42
-59.32
-53.34
-45.28
-36.24
-27.15
-18.59
-10.76
-3.63
2.81
8.49
13.31
17.23
20.32
22.75
24.71
26.36
27.83
29.21
30.58
31.93
33.21
34.28
35.00
35.27
35.01
34.23
32.99
31.39
29.65
27.97
26.53
25.34
24.25
22.99
21.35
19.22
16.65
13.82
10.92
8.10
5.50
3.18
1.15
-0.77
-2.80
-5.26
-8.30
-11.85
-15.66
-19.35
-22.63
-25.49
-28.11
-30.89
-34.20
-38.28
-43.08
-48.19
-52.78
-55.86
-56.49
-54.12
-48.82
-41.28
-32.52
-23.62
-15.35
-8.12
-1.94
3.37
8.05
12.25
16.04
19.36
22.15
24.34
25.92
26.96
27.61
28.07
28.51
29.02
29.64
30.30
30.90
31.30
31.37
31.01
30.15
28.81
27.10
25.15
23.14
21.22
19.47
17.83
16.15
14.22
11.93
9.29
6.50
3.84
1.52
-0.41
-2.10
-3.88
-6.07
-8.84
-12.18
-15.85
-19.59
-23.14
-26.35
-29.24
-31.96
-34.81
-38.11
-42.04
-46.48
-50.86
-54.26
-55.68
-54.40
-50.28
-43.82
-35.93
-27.65
-19.79
-12.74
-6.56
-1.15
3.64
7.83
11.38
14.21
16.33
17.92
19.25
20.59
22.04
23.53
24.81
25.68
26.08
26.15
26.14
26.22
26.42
26.55
26.41
25.86
24.87
23.48
21.74
19.68
17.29
14.65
11.93
9.35
7.11
5.35
4.00
2.81
1.42
-0.51
-3.16
-6.50
-10.23
-13.96
-17.33
-20.18
-22.58
-24.73
-26.95
-29.52
-32.66
-36.45
-40.75
-45.05
-48.58
-50.34
-49.57
-45.95
-39.84
-32.08
-23.73
-15.66
-8.40
-2.13
3.18
7.63
11.32
14.27
16.56
18.27
19.47
20.30
20.89
21.44
22.10
22.96
23.96
24.95
25.70
26.03
25.93
25.46
24.70
23.73
22.54
21.09
19.38
17.45
15.38
13.21
10.99
8.71
6.40
4.14
2.01
0.03
-1.89
-3.94
-6.34
-9.17
-12.37
-15.69
-18.91
-21.90
-24.76
-27.76
-31.24
-35.46
-40.47
-46.00
-51.46
-56.03
-58.79
-59.01
-56.33
-50.95
-43.51
-35.01
-26.39
-18.38
-11.30
-5.15
0.28
5.23
9.84
14.11
17.92
21.15
23.71
25.64
27.10
28.30
29.44
30.63
31.81
32.86
33.60
33.94
33.85
33.39
32.63
31.61
30.32
28.79
27.08
25.30
23.53
21.81
20.08
18.26
16.26
14.05
11.64
9.05
6.28
3.37
0.32
-2.84
-6.10
-9.45
-12.88
-16.38
-19.92
-23.48
-27.07
-30.80
-34.87
-39.47
-44.64
-50.17
-55.51
-59.81
-62.16
-61.83
-58.55
-52.57
-44.64
-35.74
-26.79
-18.42
-10.81
-3.86
2.63
8.79
14.57
19.81
24.32
28.02
30.94
33.17
34.87
36.19
37.29
38.27
39.17
39.95
40.54
40.82
40.74
40.29
39.53
38.48
37.16
35.56
33.69
31.63
29.49
27.37
25.33
23.33
21.26
19.00
16.49
13.78
10.98
8.25
5.68
3.24
0.79
-1.88
-4.91
-8.33
-12.00
-15.70
-19.20
-22.44
-25.55
-28.75
-32.36
-36.60
-41.52
-46.90
-52.22
-56.72
-59.49
-59.75
-57.15
-51.86
-44.55
-36.20
-27.69
-19.64
-12.25
-5.46
0.91
6.94
12.61
17.75
22.19
25.80
28.56
30.57
32.01
33.06
33.88
34.55
35.11
35.59
36.02
36.41
36.76
36.93
36.78
36.15
35.01
33.43
31.57
29.56
27.50
25.44
23.40
21.37
19.35
17.29
15.16
12.93
10.62
8.28
5.84
3.18
0.08
-3.60
-7.79
-12.20
-16.39
-20.04
-23.11
-25.86
-28.76
-32.26
-36.63
-41.83
-47.49
-52.97
-57.35
-59.70
-59.27
-55.72
-49.28
-40.73
-31.09
-21.41
-12.44
-4.57
2.11
7.76
12.57
16.67
20.18
23.16
25.65
27.77
29.62
31.34
32.96
34.44
35.64
36.42
36.77
36.79
36.66
36.51
36.35
36.03
35.34
34.14
32.46
30.43
28.26
26.14
24.16
22.33
20.60
18.88
17.08
15.09
12.86
10.40
7.83
5.33
3.02
0.92
-1.15
-3.45
-6.23
-9.58
-13.37
-17.31
-21.09
-24.53
-27.66
-30.70
-33.96
-37.68
-42.01
-46.88
-52.03
-56.95
-60.91
-63.10
-62.78
-59.58
-53.64
-45.61
-36.49
-27.29
-18.75
-11.16
-4.44
1.66
7.33
12.60
17.30
21.24
24.33
26.68
28.51
30.08
31.54
32.88
34.03
34.84
35.26
35.32
35.14
34.89
34.65
34.40
33.98
33.17
31.79
29.80
27.39
24.86
22.59
20.78
19.45
18.37
17.20
15.70
13.74
11.36
8.74
6.03
3.36
0.77
-1.75
-4.21
-6.66
-9.17
-11.83
-14.73
-17.88
-21.21
-24.54
-27.75
-30.86
-34.09
-37.74
-41.96
-46.60
-51.09
-54.64
-56.41
-55.84
-52.80
-47.53
-40.59
-32.69
-24.51
-16.64
-9.42
-3.01
2.68
7.76
12.35
16.40
19.80
22.41
24.24
25.45
26.31
27.04
27.78
28.51
29.15
29.59
29.81
29.87
29.85
29.77
29.60
29.19
28.37
27.03
25.19
23.02
20.71
18.46
16.31
14.24
12.15
10.00
7.79
5.57
3.36
1.11
-1.31
-3.98
-6.90
-10.00
-13.16
-16.28
-19.32
-22.32
-25.38
-28.63
-32.20
-36.21
-40.61
-45.12
-49.17
-51.98
-52.74
-50.91
-46.46
-39.85
-31.95
-23.75
-16.02
-9.18
-3.27
1.88
6.45
10.51
14.03
16.93
19.17
20.81
21.98
22.86
23.59
24.25
24.91
25.54
26.14
26.67
27.11
27.45
27.64
27.58
27.14
26.17
24.62
22.56
20.19
17.75
15.45
13.35
11.45
9.68
7.98
6.32
4.65
2.87
0.85
-1.53
-4.32
-7.46
-10.81
-14.18
-17.39
-20.37
-23.12
-25.79
-28.62
-31.89
-35.82
-40.45
-45.50
-50.43
-54.47
-56.77
-56.70
-53.95
-48.69
-41.51
-33.32
-25.04
-17.40
-10.75
-5.05
-0.04
4.54
8.80
12.69
16.03
18.70
20.70
22.12
23.14
23.93
24.61
25.32
26.19
27.26
28.47
29.59
30.31
30.31
29.47
27.88
25.78
23.44
21.12
18.98
17.12
15.62
14.45
13.51
12.57
11.38
9.73
7.55
4.89
1.87
-1.37
-4.69
-7.94
-11.01
-13.84
-16.43
-18.89
-21.41
-24.17
-27.29
-30.86
-34.92
-39.50
-44.48
-49.52
-53.94
-56.80
-57.24
-54.79
-49.55
-42.27
-34.00
-25.74
-18.15
-11.47
-5.58
-0.28
4.60
9.05
13.01
16.38
19.13
21.32
23.05
24.46
25.65
26.71
27.64
28.41
28.90
29.06
28.86
28.40
27.81
27.24
26.74
26.22
25.51
24.38
22.71
20.55
18.09
15.63
13.40
11.49
9.80
8.10
6.14
3.77
1.03
-1.91
-4.83
-7.57
-10.12
-12.62
-15.30
-18.40
-22.06
-26.37
-31.24
-36.48
-41.64
-46.08
-48.98
-49.59
-47.47
-42.70
-35.94
-28.14
-20.29
-13.08
-6.77
-1.24
3.77
8.38
12.52
15.93
18.41
19.96
20.87
21.59
22.53
23.85
25.47
27.12
28.51
29.46
29.86
29.69
28.98
27.81
26.30
24.65
23.01
21.41
19.75
17.89
15.79
13.54
11.24
8.97
6.62
4.00
0.97
-2.44
-5.99
-9.39
-12.41
-15.05
-17.49
-19.96
-22.72
-25.96
-29.83
-34.47
-39.86
-45.70
-51.37
-55.90
-58.22
-57.54
-53.62
-46.85
-38.20
-28.81
-19.71
-11.54
-4.52
1.43
6.55
11.05
15.06
18.67
21.93
24.88
27.51
29.76
31.53
32.71
33.25
33.23
32.84
32.35
32.02
31.93
31.97
31.86
31.24
29.83
27.59
24.70
21.50
18.38
15.63
13.32
11.28
9.20
6.77
3.71
-0.04
-4.35
-8.86
-13.20
-17.05
-20.33
-23.27
-26.39
-30.23
-35.18
-41.14
-47.47
-53.11
-56.83
-57.67
-55.21
-49.70
-41.93
-32.97
-23.83
-15.25
-7.58
-0.83
5.19
10.66
15.68
20.22
24.17
27.45
30.06
32.10
33.64
34.76
35.48
35.79
35.75
35.44
34.99
34.50
33.99
33.37
32.50
31.24
29.50
27.30
24.75
22.01
19.30
16.71
14.24
11.75
9.05
5.97
2.49
-1.25
-5.01
-8.58
-11.85
-14.85
-17.79
-20.94
-24.64
-29.16
-34.62
-40.84
-47.20
-52.73
-56.24
-56.75
-53.76
-47.55
-39.03
-29.53
-20.31
-12.17
-5.33
0.52
5.88
11.14
16.34
21.20
25.31
28.37
30.37
31.55
32.28
32.84
33.35
33.77
34.04
34.15
34.12
34.01
33.81
33.42
32.69
31.45
29.65
27.32
24.61
21.73
18.89
16.23
13.83
11.68
9.69
7.72
5.61
3.17
0.28
-3.11
-6.90
-10.84
-14.63
-18.02
-21.00
-23.79
-26.77
-30.40
-34.90
-40.19
-45.80
-50.96
-54.72
-56.18
-54.75
-50.33
-43.31
-34.55
-25.08
-15.87
-7.60
-0.53
5.36
10.25
14.31
17.66
20.37
22.51
24.23
25.67
26.98
28.23
29.37
30.28
30.83
30.97
30.77
30.42
30.14
30.00
29.85
29.35
28.13
25.94
22.88
19.33
15.81
12.75
10.31
8.31
6.36
4.09
1.27
-2.07
-5.72
-9.36
-12.71
-15.66
-18.27
-20.85
-23.78
-27.53
-32.30
-38.01
-44.12
-49.71
-53.62
-54.87
-52.92
-47.93
-40.68
-32.25
-23.67
-15.62
-8.27
-1.54
4.75
10.61
15.88
20.30
23.68
25.97
27.26
27.76
27.75
27.55
27.43
27.62
28.18
29.05
30.05
30.91
31.44
31.40
30.62
29.04
26.68
23.75
20.56
17.46
14.74
12.53
10.79
9.38
8.01
6.28
3.80
0.31
-4.17
-9.27
-14.32
-18.68
-22.00
-24.40
-26.36
-28.57
-31.65
-35.97
-41.61
-48.21
-54.99
-60.78
-64.26
-64.32
-60.52
-53.28
-43.74
-33.41
-23.52
-14.80
-7.38
-0.96
4.80
10.13
15.03
19.38
23.04
25.88
27.94
29.37
30.41
31.32
32.26
33.21
34.05
34.61
34.82
34.72
34.44
34.05
33.49
32.60
31.18
29.14
26.53
23.60
20.62
17.87
15.49
13.49
11.76
10.05
8.10
5.67
2.62
-1.01
-5.05
-9.23
-13.31
-17.12
-20.63
-23.95
-27.29
-30.95
-35.22
-40.27
-46.01
-51.95
-57.30
-61.01
-62.11
-60.01
-54.70
-46.75
-37.18
-27.07
-17.37
-8.65
-1.10
5.31
10.74
15.34
19.19
22.29
24.72
26.59
28.08
29.44
30.85
32.38
33.91
35.17
35.89
35.91
35.31
34.31
33.25
32.29
31.43
30.50
29.32
27.81
26.00
23.92
21.58
18.94
16.00
12.86
9.77
7.00
4.64
2.58
0.50
-1.91
-4.81
-8.25
-12.09
-16.13
-20.20
-24.19
-28.02
-31.74
-35.50
-39.54
-44.07
-49.12
-54.36
-59.14
-62.61
-63.88
-62.31
-57.69
-50.33
-40.98
-30.70
-20.57
-11.45
-3.76
2.54
7.72
12.10
15.87
19.08
21.74
23.91
25.77
27.55
29.42
31.38
33.27
34.85
35.90
36.30
36.09
35.43
34.52
33.52
32.52
31.48
30.28
28.74
26.78
24.45
21.86
19.18
16.57
14.07
11.64
9.20
6.68
4.01
1.18
-1.83
-5.00
-8.28
-11.59
-14.88
-18.14
-21.42
-24.90
-28.82
-33.40
-38.75
-44.67
-50.56
-55.44
-58.19
-57.89
-54.17
-47.38
-38.48
-28.71
-19.15
-10.46
-2.85
3.74
9.44
14.28
18.23
21.25
23.41
24.88
25.90
26.71
27.49
28.34
29.28
30.23
31.09
31.74
32.08
32.12
31.84
31.31
30.53
29.47
28.10
26.39
24.35
22.03
19.52
16.90
14.28
11.69
9.13
6.56
3.92
1.13
-1.83
-4.91
-8.09
-11.29
-14.47
-17.61
-20.73
-23.90
-27.22
-30.88
-35.06
-39.91
-45.38
-51.24
-56.92
-61.65
-64.50
-64.67
-61.68
-55.63
-47.16
-37.33
-27.29
-17.94
-9.75
-2.75
3.30
8.70
13.62
18.04
21.87
24.98
27.35
29.06
30.27
31.17
31.93
32.65
33.41
34.18
34.91
35.49
35.78
35.67
35.03
33.84
32.12
30.00
27.66
25.25
22.88
20.56
18.25
15.90
13.47
10.99
8.51
6.02
3.48
0.77
-2.14
-5.25
-8.47
-11.67
-14.80
-17.88
-21.03
-24.39
-28.11
-32.30
-37.02
-42.30
-47.95
-53.50
-58.21
-61.12
-61.38
-58.50
-52.56
-44.21
-34.49
-24.49
-15.09
-6.81
0.24
6.24
11.45
16.05
20.08
23.44
26.04
27.83
28.92
29.52
29.90
30.29
30.86
31.65
32.60
33.58
34.36
34.73
34.53
33.72
32.36
30.59
28.55
26.30
23.87
21.30
18.65
16.06
13.65
11.52
9.62
7.81
5.81
3.35
0.28
-3.38
-7.34
-11.27
-14.84
-17.93
-20.63
-23.24
-26.13
-29.65
-34.02
-39.24
-44.99
-50.55
-54.91
-56.93
-55.77
-51.20
-43.71
-34.41
-24.60
-15.35
-7.26
-0.44
5.35
10.36
14.78
18.59
21.71
24.06
25.64
26.57
27.06
27.31
27.50
27.73
28.04
28.42
28.88
29.41
29.97
30.46
30.69
30.41
29.37
27.43
24.59
21.06
17.19
13.42
10.14
7.59
5.75
4.33
2.90
0.99
-1.64
-5.02
-8.89
-12.90
-16.74
-20.23
-23.38
-26.33
-29.31
-32.57
-36.38
-40.91
-46.15
-51.75
-57.03
-60.98
-62.55
-60.95
-55.96
-48.04
-38.21
-27.75
-17.78
-9.01
-1.64
4.51
9.73
14.21
17.98
21.04
23.45
25.43
27.26
29.13
31.01
32.72
34.02
34.81
35.17
35.28
35.30
35.23
34.92
34.16
32.85
31.00
28.83
26.51
24.23
22.00
19.75
17.42
14.98
12.49
10.11
7.92
5.85
3.62
0.90
-2.57
-6.80
-11.51
-16.21
-20.50
-24.15
-27.26
-30.18
-33.37
-37.26
-42.10
-47.83
-53.99
-59.69
-63.78
-65.15
-63.12
-57.62
-49.34
-39.35
-28.84
-18.76
-9.72
-1.89
4.73
10.27
14.88
18.72
21.93
24.63
26.88
28.74
30.25
31.47
32.52
33.48
34.41
35.26
35.91
36.20
36.05
35.45
34.47
33.23
31.81
30.26
28.54
26.65
24.59
22.40
20.12
17.79
15.40
12.94
10.40
7.83
5.23
2.57
-0.25
-3.36
-6.84
-10.60
-14.48
-18.26
-21.82
-25.24
-28.72
-32.51
-36.82
-41.65
-46.86
-52.08
-56.77
-60.24
-61.73
-60.64
-56.64
-49.91
-41.12
-31.24
-21.32
-12.15
-4.16
2.61
8.32
13.21
17.40
20.93
23.73
25.80
27.24
28.32
29.40
30.74
32.39
34.15
35.68
36.69
37.08
36.95
36.51
35.95
35.25
34.30
32.98
31.24
29.18
26.90
24.46
21.89
19.12
16.17
13.15
10.22
7.49
4.97
2.54
0.01
-2.80
-5.96
-9.45
-13.17
-17.02
-20.99
-25.09
-29.32
-33.70
-38.22
-42.87
-47.64
-52.35
-56.58
-59.59
-60.52
-58.62
-53.67
-46.12
-36.97
-27.37
-18.22
-9.92
-2.43
4.43
10.75
16.34
20.91
24.23
26.29
27.39
27.94
28.37
28.98
29.92
31.18
32.64
34.10
35.37
36.25
36.62
36.41
35.63
34.34
32.65
30.74
28.78
26.93
25.22
23.59
21.87
19.89
17.58
14.99
12.24
9.46
6.70
3.94
1.13
-1.83
-5.01
-8.46
-12.17
-16.09
-20.10
-24.08
-27.96
-31.81
-35.81
-40.18
-45.04
-50.35
-55.84
-60.97
-64.95
-66.94
-66.19
-62.33
-55.52
-46.46
-36.26
-25.97
-16.40
-7.92
-0.50
6.03
11.77
16.67
20.59
23.44
25.34
26.63
27.76
29.11
30.86
32.95
35.09
36.96
38.31
39.04
39.17
38.78
37.95
36.69
35.05
33.15
31.18
29.36
27.77
26.37
24.92
23.18
20.92
18.12
14.93
11.62
8.48
5.74
3.39
1.24
-1.03
-3.79
-7.21
-11.24
-15.61
-19.98
-24.10
-27.94
-31.64
-35.45
-39.60
-44.24
-49.39
-54.79
-59.88
-63.81
-65.55
-64.27
-59.64
-52.02
-42.36
-31.89
-21.68
-12.43
-4.41
2.42
8.16
12.97
16.92
20.12
22.69
24.78
26.54
28.13
29.69
31.29
32.89
34.32
35.37
35.83
35.71
35.12
34.29
33.40
32.50
31.60
30.66
29.64
28.48
27.10
25.29
22.90
19.91
16.52
13.09
9.99
7.40
5.20
3.08
0.68
-2.26
-5.77
-9.71
-13.86
-18.00
-22.01
-25.83
-29.55
-33.32
-37.31
-41.69
-46.52
-51.60
-56.40
-60.07
-61.69
-60.45
-56.07
-48.89
-39.78
-29.87
-20.17
-11.31
-3.45
3.47
9.58
14.88
19.21
22.43
24.51
25.66
26.29
26.82
27.66
28.99
30.78
32.77
34.67
36.18
37.12
37.43
37.11
36.21
34.79
32.96
30.88
28.76
26.75
24.84
22.86
20.58
17.81
14.57
11.08
7.61
4.40
1.52
-1.08
-3.58
-6.16
-9.00
-12.20
-15.85
-19.90
-24.25
-28.71
-33.16
-37.57
-42.07
-46.82
-51.96
-57.37
-62.62
-66.98
-69.55
-69.51
-66.39
-60.21
-51.58
-41.44
-30.89
-20.82
-11.72
-3.72
3.29
9.51
15.02
19.83
23.91
27.27
29.95
32.10
33.86
35.44
36.99
38.59
40.20
41.65
42.68
43.08
42.79
41.87
40.48
38.73
36.69
34.36
31.75
28.96
26.15
23.46
20.93
18.50
16.06
13.53
10.88
8.12
5.25
2.29
-0.79
-4.02
-7.39
-10.90
-14.57
-18.42
-22.40
-26.48
-30.63
-34.90
-39.49
-44.58
-50.27
-56.33
-62.18
-66.89
-69.50
-69.21
-65.64
-58.99
-49.92
-39.43
-28.58
-18.21
-8.80
-0.51
6.74
13.10
18.60
23.14
26.64
29.08
30.66
31.75
32.75
34.05
35.82
37.94
40.08
41.79
42.67
42.54
41.50
39.88
38.03
36.24
34.56
32.94
31.23
29.37
27.26
24.92
22.30
19.39
16.17
12.69
9.01
5.19
1.29
-2.64
-6.52
-10.23
-13.70
-16.94
-20.07
-23.32
-26.97
-31.28
-36.45
-42.50
-49.19
-55.87
-61.56
-65.11
-65.55
-62.43
-56.01
-47.15
-37.03
-26.74
-17.05
-8.33
-0.63
6.22
12.43
18.12
23.26
27.65
31.05
33.34
34.58
35.18
35.62
36.31
37.37
38.64
39.78
40.48
40.65
40.36
39.77
38.96
37.88
36.39
34.40
31.90
29.02
26.02
23.11
20.42
17.95
15.57
13.13
10.50
7.58
4.35
0.77
-3.12
-7.24
-11.41
-15.44
-19.17
-22.62
-25.99
-29.62
-33.84
-38.86
-44.71
-51.19
-57.83
-63.96
-68.60
-70.71
-69.45
-64.50
-56.28
-45.86
-34.66
-23.97
-14.53
-6.51
0.38
6.52
12.24
17.62
22.61
27.10
30.98
34.17
36.60
38.23
39.13
39.47
39.53
39.58
39.82
40.30
40.90
41.42
41.61
41.26
40.24
38.51
36.08
33.08
29.72
26.26
23.00
20.10
17.64
15.55
13.68
11.83
9.80
7.41
4.53
1.07
-2.92
-7.25
-11.62
-15.69
-19.28
-22.39
-25.29
-28.40
-32.13
-36.76
-42.32
-48.56
-54.86
-60.35
-63.99
-64.86
-62.39
-56.62
-48.20
-38.25
-27.95
-18.29
-9.80
-2.60
3.49
8.73
13.32
17.37
20.87
23.78
26.09
27.84
29.17
30.22
31.12
31.94
32.67
33.22
33.56
33.66
33.58
33.33
32.88
32.13
30.98
29.35
27.27
24.85
22.24
19.59
17.06
14.72
12.60
10.63
8.69
6.56
4.05
1.04
-2.45
-6.26
-10.16
-13.89
-17.35
-20.58
-23.79
-27.26
-31.31
-36.14
-41.74
-47.81
-53.70
-58.47
-61.09
-60.69
-56.90
-49.99
-40.84
-30.67
-20.71
-11.86
-4.47
1.55
6.63
11.19
15.48
19.48
23.04
25.94
28.12
29.63
30.65
31.35
31.84
32.14
32.27
32.22
32.05
31.81
31.55
31.24
30.85
30.26
29.30
27.80
25.66
22.94
19.91
16.93
14.32
12.17
10.34
8.53
6.40
3.80
0.75
-2.57
-5.96
-9.27
-12.43
-15.49
-18.52
-21.61
-24.87
-28.42
-32.43
-37.05
-42.37
-48.28
-54.41
-59.98
-64.01
-65.50
-63.78
-58.78
-51.04
-41.55
-31.48
-21.78
-13.07
-5.53
0.92
6.49
11.40
15.76
19.62
23.01
25.96
28.51
30.68
32.47
33.86
34.79
35.27
35.39
35.26
35.01
34.71
34.36
33.88
33.21
32.29
31.12
29.68
27.99
26.06
23.97
21.75
19.47
17.14
14.71
12.14
9.41
6.54
3.60
0.69
-2.20
-5.06
-7.95
-10.87
-13.79
-16.68
-19.53
-22.41
-25.45
-28.84
-32.76
-37.31
-42.40
-47.70
-52.63
-56.42
-58.21
-57.39
-53.69
-47.43
-39.39
-30.61
-22.09
-14.47
-7.94
-2.31
2.74
7.42
11.74
15.48
18.47
20.69
22.35
23.74
25.07
26.36
27.49
28.31
28.80
29.07
29.26
29.46
29.63
29.62
29.25
28.42
27.08
25.31
23.19
20.84
18.38
15.91
13.49
11.13
8.78
6.50
4.37
2.45
0.67
-1.15
-3.30
-6.01
-9.30
-12.96
-16.68
-20.14
-23.19
-25.87
-28.34
-30.89
-33.85
-37.42
-41.57
-45.86
-49.44
-51.30
-50.60
-47.03
-40.97
-33.24
-24.84
-16.58
-8.91
-2.07
3.85
8.75
12.54
15.23
17.01
18.16
19.05
19.97
21.08
22.41
23.83
25.11
25.99
26.31
26.11
25.56
24.93
24.37
23.85
23.21
22.26
20.93
19.27
17.45
15.63
13.84
12.05
10.19
8.18
6.00
3.60
1.04
-1.64
-4.34
-6.95
-9.37
-11.62
-13.77
-15.99
-18.51
-21.57
-25.38
-30.04
-35.47
-41.22
-46.58
-50.69
-52.71
-52.17
-49.03
-43.70
-36.89
-29.33
-21.69
-14.41
-7.70
-1.59
3.97
9.00
13.43
17.14
19.95
21.83
22.85
23.30
23.51
23.76
24.21
24.83
25.50
26.04
26.33
26.30
25.95
25.28
24.28
22.93
21.19
19.04
16.56
13.93
11.41
9.20
7.44
6.01
4.66
3.03
0.78
-2.27
-6.07
-10.31
-14.54
-18.30
-21.34
-23.77
-26.00
-28.58
-32.02
-36.56
-42.11
-48.23
-54.21
-59.21
-62.27
-62.58
-59.68
-53.70
-45.40
-35.97
-26.67
-18.38
-11.41
-5.53
-0.29
4.71
9.64
14.40
18.75
22.46
25.40
27.56
29.02
29.95
30.50
30.82
31.04
31.20
31.36
31.54
31.73
31.87
31.82
31.42
30.49
28.93
26.76
24.12
21.26
18.47
16.00
13.97
12.30
10.70
8.79
6.24
2.91
-1.06
-5.35
-9.56
-13.40
-16.80
-19.84
-22.79
-25.91
-29.47
-33.70
-38.67
-44.26
-50.05
-55.29
-59.03
-60.38
-58.73
-54.01
-46.69
-37.70
-28.13
-18.94
-10.75
-3.76
2.21
7.52
12.48
17.20
21.55
25.29
28.16
30.15
31.47
32.50
33.61
34.95
36.44
37.80
38.75
39.14
38.99
38.45
37.65
36.67
35.53
34.21
32.70
31.05
29.27
27.35
25.21
22.78
20.07
17.15
14.12
11.10
8.16
5.20
2.08
-1.30
-4.98
-8.78
-12.49
-15.87
-18.91
-21.81
-24.94
-28.69
-33.31
-38.79
-44.83
-50.92
-56.38
-60.41
-62.20
-61.08
-56.79
-49.66
-40.60
-30.84
-21.53
-13.41
-6.61
-0.83
4.37
9.32
14.05
18.42
22.26
25.40
27.78
29.44
30.53
31.23
31.76
32.30
32.90
33.54
34.10
34.46
34.53
34.24
33.52
32.30
30.56
28.37
25.91
23.39
21.03
18.91
17.03
15.30
13.63
11.87
9.84
7.39
4.45
1.07
-2.53
-6.10
-9.41
-12.42
-15.22
-17.99
-20.90
-24.17
-27.99
-32.52
-37.80
-43.61
-49.34
-54.11
-56.89
-56.87
-53.74
-47.75
-39.70
-30.69
-21.77
-13.72
-6.81
-0.90
4.39
9.42
14.27
18.75
22.51
25.25
26.92
27.69
27.90
27.88
27.85
27.90
28.06
28.35
28.74
29.20
29.63
29.87
29.77
29.15
27.82
25.72
22.90
19.62
16.27
13.25
10.84
9.04
7.57
6.06
4.18
1.77
-1.09
-4.21
-7.38
-10.49
-13.54
-16.61
-19.85
-23.41
-27.44
-32.00
-37.01
-42.18
-46.99
-50.70
-52.49
-51.66
-47.89
-41.41
-32.95
-23.57
-14.31
-5.92
1.28
7.26
12.14
16.05
19.12
21.44
23.17
24.49
25.59
26.55
27.40
28.14
28.73
29.14
29.31
29.19
28.74
28.04
27.22
26.38
25.48
24.29
22.55
20.10
17.05
13.73
10.55
7.75
5.33
3.03
0.53
-2.39
-5.75
-9.38
-13.01
-16.43
-19.58
-22.64
-25.91
-29.73
-34.35
-39.83
-45.88
-51.96
-57.27
-60.94
-62.17
-60.50
-55.88
-48.81
-40.16
-30.95
-22.02
-13.85
-6.52
0.14
6.30
11.97
16.99
21.14
24.30
26.46
27.81
28.60
29.13
29.58
30.05
30.56
31.08
31.57
31.98
32.31
32.49
32.39
31.83
30.60
28.60
25.90
22.72
19.40
16.30
13.62
11.39
9.44
7.47
5.12
2.11
-1.64
-5.95
-10.43
-14.66
-18.35
-21.54
-24.56
-27.94
-32.19
-37.55
-43.90
-50.65
-56.90
-61.51
-63.47
-62.09
-57.32
-49.71
-40.33
-30.39
-20.85
-12.23
-4.64
2.07
8.07
13.39
18.01
21.88
25.06
27.69
29.94
31.90
33.59
35.01
36.12
36.93
37.46
37.73
37.71
37.39
36.75
35.82
34.67
33.32
31.74
29.83
27.45
24.54
21.19
17.66
14.24
11.14
8.35
5.66
2.79
-0.44
-4.02
-7.78
-11.55
-15.25
-19.00
-23.00
-27.44
-32.40
-37.85
-43.71
-49.82
-55.86
-61.24
-65.11
-66.56
-64.93
-60.09
-52.49
-43.08
-32.90
-22.87
-13.52
-5.07
2.51
9.31
15.37
20.55
24.69
27.66
29.52
30.56
31.25
32.06
33.27
34.89
36.65
38.19
39.22
39.58
39.27
38.44
37.25
35.85
34.35
32.76
31.02
29.05
26.82
24.36
21.82
19.26
16.66
13.88
10.77
7.21
3.28
-0.83
-4.87
-8.59
-11.85
-14.65
-17.18
-19.80
-22.94
-27.01
-32.20
-38.42
-45.27
-52.11
-58.15
-62.55
-64.51
-63.45
-59.16
-51.99
-42.82
-32.78
-22.89
-13.79
-5.64
1.71
8.44
14.54
19.89
24.32
27.79
30.33
32.09
33.23
33.89
34.30
34.69
35.28
36.17
37.24
38.27
38.94
39.09
38.62
37.53
35.82
33.49
30.56
27.20
23.68
20.35
17.45
15.05
12.95
10.77
8.02
4.39
-0.17
-5.32
-10.49
-15.06
-18.69
-21.43
-23.76
-26.39
-30.01
-35.01
-41.36
-48.51
-55.44
-60.84
-63.43
-62.25
-57.06
-48.39
-37.41
-25.59
-14.22
-4.13
4.31
11.10
16.43
20.50
23.53
25.79
27.61
29.27
30.96
32.76
34.54
36.11
37.18
37.55
37.14
36.12
34.81
33.64
32.86
32.47
32.18
31.59
30.32
28.25
25.41
22.01
18.27
14.47
10.83
7.54
4.65
2.03
-0.65
-3.71
-7.33
-11.41
-15.72
-19.99
-24.06
-27.97
-31.89
-36.03
-40.59
-45.71
-51.36
-57.23
-62.61
-66.43
-67.61
-65.43
-59.82
-51.42
-41.35
-30.73
-20.38
-10.74
-1.89
6.12
13.23
19.29
24.10
27.54
29.71
30.91
31.57
32.23
33.27
34.81
36.69
38.55
39.99
40.74
40.68
39.87
38.46
36.63
34.56
32.39
30.18
27.92
25.55
22.98
20.24
17.42
14.59
11.75
8.76
5.41
1.60
-2.56
-6.75
-10.65
-14.01
-16.86
-19.44
-22.11
-25.24
-29.12
-33.96
-39.83
-46.61
-53.81
-60.55
-65.65
-67.91
-66.55
-61.41
-53.09
-42.73
-31.67
-21.00
-11.42
-3.11
4.05
10.30
15.79
20.52
24.41
27.41
29.59
31.09
32.12
32.84
33.37
33.75
34.04
34.28
34.53
34.83
35.18
35.48
35.56
35.18
34.12
32.24
29.58
26.35
22.91
19.65
16.87
14.63
12.79
11.05
9.06
6.55
3.38
-0.41
-4.62
-8.93
-13.03
-16.73
-20.02
-23.11
-26.39
-30.29
-35.11
-40.88
-47.27
-53.53
-58.56
-61.22
-60.58
-56.23
-48.52
-38.41
-27.24
-16.30
-6.47
1.87
8.75
14.40
19.00
22.64
25.35
27.23
28.47
29.30
29.99
30.67
31.38
32.06
32.60
32.91
32.92
32.66
32.17
31.53
30.82
30.02
29.03
27.66
25.75
23.19
20.02
16.49
12.91
9.59
6.72
4.27
1.99
-0.45
-3.33
-6.79
-10.70
-14.82
-18.84
-22.51
-25.79
-28.85
-31.98
-35.55
-39.93
-45.28
-51.42
-57.77
-63.30
-66.79
-67.18
-63.90
-57.13
-47.69
-36.81
-25.72
-15.32
-6.09
1.87
8.66
14.40
19.17
22.97
25.83
27.83
29.14
29.99
30.63
31.29
32.10
33.10
34.19
35.17
35.83
36.01
35.69
34.95
33.91
32.71
31.39
29.93
28.21
26.14
23.67
20.86
17.79
14.63
11.48
8.45
5.54
2.67
-0.32
-3.57
-7.17
-11.05
-14.99
-18.75
-22.14
-25.23
-28.28
-31.68
-35.81
-40.87
-46.73
-52.94
-58.71
-63.05
-64.97
-63.73
-59.09
-51.42
-41.64
-30.93
-20.41
-10.86
-2.60
4.35
10.16
15.01
19.02
22.26
24.81
26.76
28.24
29.41
30.39
31.30
32.14
32.89
33.43
33.63
33.45
32.95
32.29
31.63
30.98
30.19
29.01
27.22
24.80
21.97
19.07
16.41
14.11
12.00
9.73
6.92
3.36
-0.86
-5.41
-9.78
-13.56
-16.61
-19.09
-21.44
-24.20
-27.79
-32.42
-38.03
-44.26
-50.51
-55.90
-59.43
-60.14
-57.44
-51.29
-42.35
-31.78
-20.90
-10.79
-2.10
5.07
10.87
15.56
19.33
22.33
24.62
26.33
27.61
28.61
29.43
30.11
30.64
31.04
31.33
31.52
31.62
31.58
31.33
30.74
29.72
28.21
26.19
23.72
20.88
17.85
14.79
11.90
9.27
6.94
4.79
2.59
0.07
-2.99
-6.62
-10.68
-14.87
-18.82
-22.34
-25.39
-28.23
-31.27
-34.95
-39.58
-45.13
-51.21
-57.03
-61.61
-63.93
-63.27
-59.37
-52.48
-43.33
-32.93
-22.32
-12.33
-3.53
3.89
9.98
14.95
19.01
22.34
25.00
27.05
28.54
29.61
30.44
31.17
31.89
32.59
33.19
33.58
33.69
33.50
33.04
32.32
31.31
29.90
28.00
25.58
22.72
19.64
16.63
13.91
11.53
9.34
7.04
4.34
1.08
-2.68
-6.69
-10.67
-14.33
-17.58
-20.49
-23.30
-26.36
-30.03
-34.62
-40.20
-46.55
-53.02
-58.66
-62.36
-63.17
-60.62
-54.82
-46.49
-36.69
-26.53
-16.88
-8.23
-0.70
5.84
11.58
16.62
20.93
24.41
26.94
28.56
29.44
29.90
30.26
30.75
31.46
32.36
33.29
34.07
34.56
34.58
34.04
32.85
31.01
28.59
25.73
22.63
19.51
16.59
14.04
11.95
10.22
8.62
6.79
4.36
1.14
-2.82
-7.20
-11.56
-15.54
-18.94
-21.90
-24.75
-27.94
-31.84
-36.63
-42.20
-48.12
-53.67
-57.90
-59.87
-58.86
-54.61
-47.42
-38.11
-27.75
-17.40
-7.83
0.51
7.50
13.15
17.58
20.95
23.45
25.31
26.75
27.95
28.96
29.77
30.35
30.70
30.88
30.93
30.92
30.84
30.63
30.19
29.41
28.25
26.65
24.63
22.21
19.43
16.36
13.07
9.66
6.18
2.65
-0.92
-4.52
-8.12
-11.70
-15.19
-18.60
-22.03
-25.65
-29.66
-34.24
-39.37
-44.81
-49.98
-54.10
-56.27
-55.76
-52.24
-45.93
-37.56
-28.18
-18.80
-10.12
-2.40
4.47
10.71
16.40
21.39
25.41
28.25
29.90
30.56
30.60
30.38
30.15
30.05
30.15
30.46
30.96
31.58
32.14
32.40
32.12
31.15
29.45
27.11
24.30
21.18
17.91
14.58
11.21
7.77
4.17
0.34
-3.69
-7.82
-11.88
-15.73
-19.36
-22.96
-26.84
-31.34
-36.61
-42.44
-48.18
-52.88
-55.49
-55.26
-51.93
-45.83
-37.73
-28.58
-19.28
-10.44
-2.39
4.80
11.15
16.66
21.29
24.94
27.53
29.09
29.79
29.95
29.95
30.07
30.48
31.13
31.84
32.40
32.64
32.39
31.56
30.08
27.91
25.17
22.08
18.89
15.83
13.00
10.30
7.53
4.43
0.85
-3.24
-7.72
-12.28
-16.63
-20.56
-24.05
-27.35
-30.89
-35.11
-40.30
-46.36
-52.75
-58.54
-62.63
-64.01
-62.05
-56.69
-48.42
-38.20
-27.17
-16.39
-6.61
1.86
9.06
15.20
20.51
25.10
28.96
32.05
34.33
35.86
36.79
37.29
37.51
37.55
37.42
37.12
36.68
36.16
35.63
35.04
34.24
32.97
30.96
28.14
24.64
20.87
17.28
14.18
11.55
9.05
6.25
2.85
-1.12
-5.36
-9.51
-13.34
-16.90
-20.45
-24.33
-28.83
-34.07
-40.06
-46.59
-53.17
-59.06
-63.24
-64.71
-62.82
-57.52
-49.47
-39.75
-29.59
-19.91
-11.19
-3.50
3.45
9.91
16.00
21.64
26.57
30.53
33.37
35.10
35.92
36.08
35.86
35.46
35.09
34.94
35.15
35.73
36.51
37.14
37.20
36.33
34.43
31.61
28.18
24.49
20.92
17.65
14.76
12.18
9.68
7.01
3.96
0.41
-3.60
-7.87
-12.14
-16.16
-19.81
-23.18
-26.51
-30.15
-34.48
-39.65
-45.55
-51.68
-57.18
-60.99
-62.16
-60.04
-54.55
-46.26
-36.19
-25.54
-15.32
-6.19
1.65
8.32
14.04
18.94
23.04
26.32
28.75
30.43
31.54
32.33
32.99
33.66
34.36
35.03
35.57
35.87
35.85
35.53
34.96
34.18
33.14
31.71
29.74
27.12
23.93
20.41
16.87
13.54
10.50
7.61
4.66
1.46
-2.00
-5.64
-9.29
-12.78
-16.09
-19.25
-22.39
-25.70
-29.39
-33.69
-38.80
-44.75
-51.20
-57.41
-62.27
-64.57
-63.44
-58.60
-50.60
-40.57
-29.85
-19.53
-10.19
-1.90
5.49
12.08
17.76
22.28
25.44
27.33
28.29
28.78
29.20
29.76
30.49
31.37
32.30
33.20
33.98
34.48
34.57
34.18
33.31
31.98
30.19
27.90
25.11
21.94
18.67
15.64
13.12
11.10
9.31
7.30
4.69
1.29
-2.75
-7.12
-11.36
-15.13
-18.32
-21.09
-23.79
-26.91
-30.85
-35.81
-41.73
-48.26
-54.75
-60.31
-63.90
-64.55
-61.66
-55.23
-45.96
-35.10
-23.97
-13.68
-4.76
2.79
9.26
14.92
19.87
24.02
27.22
29.47
30.93
31.87
32.57
33.18
33.71
34.10
34.26
34.16
33.88
33.47
32.97
32.31
31.28
29.69
27.38
24.41
20.95
17.29
13.68
10.22
6.88
3.51
-0.02
-3.84
-7.90
-12.09
-16.23
-20.20
-23.94
-27.51
-31.16
-35.16
-39.76
-45.06
-50.82
-56.45
-61.10
-63.78
-63.64
-60.24
-53.70
-44.68
-34.17
-23.31
-13.00
-3.83
4.03
10.71
16.44
21.45
25.78
29.41
32.21
34.17
35.37
35.94
36.12
36.04
35.82
35.53
35.27
35.11
35.08
35.07
34.84
34.06
32.44
29.89
26.61
22.98
19.43
16.23
13.38
10.63
7.61
4.07
-0.06
-4.60
-9.25
-13.69
-17.73
-21.34
-24.71
-28.13
-31.98
-36.59
-42.13
-48.40
-54.71
-60.00
-63.01
-62.69
-58.56
-50.90
-40.67
-29.20
-17.84
-7.56
1.14
8.25
13.98
18.62
22.37
25.35
27.67
29.48
30.99
32.37
33.67
34.80
35.57
35.81
35.50
34.75
33.83
32.96
32.31
31.83
31.28
30.31
28.61
26.00
22.63
18.84
15.08
11.68
8.72
5.98
3.13
-0.09
-3.75
-7.70
-11.65
-15.40
-18.90
-22.30
-25.84
-29.78
-34.37
-39.68
-45.61
-51.77
-57.38
-61.40
-62.72
-60.57
-54.79
-45.98
-35.32
-24.19
-13.72
-4.52
3.32
10.00
15.74
20.61
24.47
27.19
28.73
29.29
29.22
28.94
28.79
28.93
29.43
30.22
31.22
32.27
33.20
33.75
33.61
32.55
30.50
27.59
24.12
20.46
16.89
13.55
10.39
7.23
3.88
0.29
-3.50
-7.30
-10.91
-14.20
-17.25
-20.33
-23.84
-28.17
-33.57
-39.97
-46.90
-53.51
-58.70
-61.34
-60.60
-56.21
-48.60
-38.77
-27.96
-17.30
-7.56
0.93
8.13
14.14
19.06
22.95
25.89
27.98
29.35
30.15
30.55
30.73
30.87
31.11
31.53
32.05
32.54
32.83
32.79
32.34
31.39
29.86
27.70
24.91
21.67
18.25
14.96
11.94
9.13
6.24
2.92
-1.05
-5.64
-10.56
-15.38
-19.72
-23.42
-26.63
-29.76
-33.35
-37.85
-43.48
-50.05
-56.89
-62.91
-66.82
-67.45
-64.11
-56.87
-46.57
-34.59
-22.41
-11.25
-1.76
5.97
12.18
17.24
21.43
24.87
27.61
29.69
31.18
32.23
33.03
33.74
34.42
35.06
35.55
35.78
35.66
35.20
34.41
33.30
31.82
29.94
27.62
24.95
22.08
19.19
16.40
13.67
10.88
7.78
4.20
0.07
-4.48
-9.14
-13.58
-17.54
-20.96
-24.07
-27.28
-31.07
-35.80
-41.54
-47.99
-54.44
-59.88
-63.18
-63.38
-59.99
-53.08
-43.39
-32.11
-20.55
-9.78
-0.44
7.35
13.81
19.22
23.78
27.55
30.45
32.47
33.69
34.30
34.59
34.79
35.04
35.36
35.70
35.99
36.20
36.27
36.13
35.62
34.54
32.68
29.94
26.43
22.48
18.53
14.97
11.92
9.26
6.60
3.54
-0.13
-4.36
-8.87
-13.30
-17.37
-20.95
-24.18
-27.37
-30.97
-35.40
-40.83
-47.05
-53.29
-58.40
-61.08
-60.36
-55.86
-47.97
-37.68
-26.31
-15.09
-4.93
3.74
10.86
16.64
21.33
25.06
27.84
29.64
30.55
30.85
30.99
31.37
32.21
33.36
34.47
35.14
35.15
34.57
33.67
32.70
31.76
30.76
29.44
27.58
25.08
22.01
18.58
15.04
11.64
8.48
5.55
2.73
-0.16
-3.26
-6.66
-10.34
-14.16
-17.98
-21.72
-25.36
-29.06
-33.07
-37.67
-43.09
-49.29
-55.85
-61.89
-66.23
-67.69
-65.49
-59.54
-50.52
-39.64
-28.32
-17.66
-8.25
-0.13
6.94
13.25
18.86
23.62
27.29
29.79
31.26
32.10
32.75
33.54
34.53
35.53
36.26
36.48
36.19
35.56
34.87
34.32
33.90
33.41
32.52
30.93
28.55
25.47
21.98
18.43
15.11
12.12
9.40
6.73
3.87
0.62
-3.08
-7.11
-11.24
-15.21
-18.84
-22.08
-25.10
-28.18
-31.69
-35.97
-41.21
-47.37
-54.02
-60.34
-65.17
-67.23
-65.55
-59.87
-50.75
-39.50
-27.77
-16.92
-7.71
-0.20
5.99
11.31
16.00
20.06
23.40
26.03
28.08
29.76
31.22
32.50
33.51
34.16
34.44
34.44
34.29
34.15
34.09
34.09
33.99
33.55
32.46
30.51
27.71
24.27
20.59
17.10
14.06
11.55
9.43
7.38
5.04
2.13
-1.48
-5.68
-10.19
-14.61
-18.64
-22.15
-25.23
-28.13
-31.17
-34.66
-38.86
-43.87
-49.59
-55.50
-60.70
-63.99
-64.28
-60.96
-54.18
-44.81
-34.14
-23.43
-13.56
-4.94
2.38
8.46
13.42
17.32
20.24
22.38
23.96
25.22
26.36
27.50
28.64
29.69
30.57
31.16
31.42
31.35
31.04
30.62
30.23
29.92
29.63
29.15
28.20
26.55
24.11
21.04
17.67
14.36
11.35
8.65
6.10
3.46
0.53
-2.70
-6.11
-9.52
-12.81
-15.94
-19.04
-22.28
-25.88
-30.01
-34.78
-40.08
-45.58
-50.65
-54.42
-55.97
-54.57
-50.02
-42.64
-33.26
-22.97
-12.79
-3.48
4.54
11.16
16.41
20.41
23.26
25.14
26.26
26.88
27.32
27.82
28.53
29.42
30.23
30.63
30.37
29.45
28.20
27.07
26.43
26.29
26.31
25.93
24.68
22.40
19.25
15.66
12.04
8.66
5.57
2.65
-0.27
-3.36
-6.65
-10.09
-13.53
-16.80
-19.86
-22.84
-26.00
-29.63
-33.92
-38.93
-44.49
-50.24
-55.61
-59.84
-62.09
-61.54
-57.75
-50.81
-41.46
-30.86
-20.24
-10.54
-2.17
4.89
10.87
15.96
20.18
23.46
25.76
27.21
28.12
28.85
29.65
30.60
31.58
32.42
32.97
33.26
33.38
33.46
33.52
33.42
32.89
31.67
29.58
26.70
23.29
19.79
16.58
13.88
11.66
9.63
7.43
4.72
1.35
-2.58
-6.85
-11.09
-15.02
-18.47
-21.49
-24.30
-27.28
-30.86
-35.36
-40.85
-47.07
-53.34
-58.66
-61.94
-62.26
-59.16
-52.81
-43.92
-33.59
-22.91
-12.76
-3.63
4.35
11.17
16.86
21.41
24.77
26.97
28.22
28.86
29.33
29.97
30.93
32.17
33.44
34.45
35.00
35.05
34.68
34.06
33.28
32.32
31.03
29.24
26.87
23.96
20.70
17.38
14.22
11.34
8.70
6.17
3.53
0.63
-2.59
-6.09
-9.79
-13.57
-17.34
-21.07
-24.83
-28.68
-32.78
-37.32
-42.39
-47.89
-53.36
-57.99
-60.80
-60.95
-58.02
-52.16
-44.05
-34.64
-24.85
-15.32
-6.44
1.66
8.87
15.09
20.10
23.71
25.88
26.77
26.82
26.56
26.54
27.06
28.15
29.58
31.01
32.13
32.74
32.80
32.32
31.37
29.95
28.03
25.64
22.82
19.76
16.70
13.89
11.43
9.26
7.08
4.56
1.46
-2.23
-6.27
-10.31
-14.05
-17.38
-20.43
-23.47
-26.86
-30.91
-35.76
-41.31
-47.10
-52.32
-55.94
-56.98
-54.83
-49.48
-41.53
-31.99
-22.00
-12.47
-3.98
3.28
9.36
14.42
18.59
21.94
24.52
26.34
27.52
28.25
28.79
29.33
29.98
30.66
31.18
31.40
31.33
31.14
31.05
31.13
31.24
31.02
30.08
28.15
25.26
21.72
18.00
14.51
11.49
8.87
6.40
3.71
0.52
-3.25
-7.48
-11.87
-16.12
-20.08
-23.79
-27.53
-31.67
-36.51
-42.20
-48.61
-55.32
-61.58
-66.40
-68.73
-67.74
-63.10
-55.15
-44.86
-33.54
-22.43
-12.41
-3.79
3.56
9.92
15.49
20.24
23.96
26.49
27.95
28.70
29.34
30.38
32.05
34.20
36.42
38.26
39.43
39.87
39.66
38.96
37.81
36.18
34.02
31.32
28.23
25.03
22.06
19.57
17.59
15.82
13.72
10.74
6.58
1.33
-4.49
-10.14
-14.99
-18.73
-21.48
-23.71
-26.09
-29.35
-34.08
-40.47
-48.18
-56.27
-63.30
-67.76
-68.51
-65.10
-57.93
-48.10
-37.00
-26.00
-16.15
-8.00
-1.60
3.39
7.47
11.10
14.51
17.68
20.42
22.62
24.32
25.69
26.95
28.22
29.47
30.55
31.36
31.86
32.01
31.80
31.12
29.90
28.08
25.68
22.82
19.68
16.42
13.22
10.20
7.39
4.70
1.95
-1.09
-4.55
-8.43
-12.56
-16.78
-20.98
-25.30
-29.97
-35.18
-40.82
-46.39
-50.99
-53.62
-53.50
-50.27
-44.20
-36.01
-26.63
-16.94
-7.57
1.18
9.22
16.51
22.94
28.29
32.37
35.08
36.59
37.27
37.58
37.88
38.26
38.63
38.74
38.43
37.74
36.83
35.90
34.96
33.85
32.27
29.97
26.96
23.45
19.82
16.35
13.13
10.02
6.79
3.25
-0.61
-4.71
-8.94
-13.26
-17.62
-22.02
-26.43
-30.83
-35.35
-40.19
-45.55
-51.32
-56.95
-61.49
-63.82
-63.02
-58.73
-51.28
-41.53
-30.60
-19.56
-9.20
0.09
8.24
15.32
21.40
26.41
30.24
32.81
34.25
34.89
35.23
35.72
36.58
37.77
39.03
39.99
40.31
39.78
38.38
36.30
33.86
31.42
29.16
27.04
24.80
22.15
18.89
15.10
10.98
6.78
2.63
-1.45
-5.48
-9.44
-13.28
-17.01
-20.81
-24.94
-29.59
-34.61
-39.42
-43.06
-44.59
-43.36
-39.32
-32.91
-24.90
-16.11
-7.25
1.17
8.80
15.44
20.91
25.18
28.25
30.24
31.30
31.61
31.41
30.96
30.52
30.25
30.20
30.27
30.25
29.95
29.27
28.21
26.87
25.36
23.72
21.91
19.79
17.21
14.10
10.48
6.53
2.49
-1.40
-5.01
-8.31
-11.44
-14.59
-17.98
-21.76
-26.07
-30.98
-36.46
-42.25
-47.82
-52.34
-54.84
-54.57
-51.21
-45.06
-36.95
-27.93
-18.94
-10.57
-3.02
3.74
9.79
15.12
19.60
23.12
25.68
27.44
28.63
29.51
30.26
30.95
31.54
31.93
32.02
31.73
31.10
30.18
29.08
27.89
26.58
25.06
23.20
20.89
18.18
15.22
12.21
9.36
6.68
4.05
1.27
-1.86
-5.32
-8.95
-12.48
-15.68
-18.55
-21.30
-24.33
-28.03
-32.61
-37.90
-43.36
-48.13
-51.32
-52.19
-50.43
-46.18
-40.02
-32.74
-25.14
-17.80
-11.00
-4.76
1.01
6.37
11.24
15.46
18.87
21.41
23.15
24.26
24.91
25.22
25.29
25.20
25.06
25.01
25.17
25.56
26.08
26.52
26.62
26.13
24.89
22.86
20.16
17.09
14.04
11.40
9.39
7.96
6.82
5.53
3.74
1.31
-1.66
-4.88
-8.03
-10.86
-13.27
-15.31
-17.21
-19.28
-21.89
-25.33
-29.64
-34.55
-39.43
-43.44
-45.74
-45.75
-43.26
-38.52
-32.08
-24.71
-17.13
-9.94
-3.50
2.04
6.71
10.59
13.72
16.11
17.74
18.66
19.02
19.07
19.06
19.12
19.28
19.45
19.49
19.38
19.13
18.79
18.41
17.95
17.35
16.51
15.39
13.98
12.29
10.32
8.10
5.61
2.88
-0.04
-3.07
-6.10
-9.03
-11.79
-14.34
-16.76
-19.17
-21.80
-24.91
-28.71
-33.19
-38.08
-42.77
-46.45
-48.32
-47.84
-44.86
-39.76
-33.21
-26.03
-18.93
-12.38
-6.56
-1.48
2.96
6.85
10.25
13.15
15.55
17.44
18.81
19.71
20.22
20.43
20.46
20.40
20.33
20.32
20.37
20.46
20.50
20.30
19.63
18.30
16.25
13.61
10.66
7.75
5.16
2.98
1.05
-0.89
-3.14
-5.86
-9.02
-12.45
-15.92
-19.28
-22.47
-25.58
-28.74
-32.13
-35.92
-40.18
-44.79
-49.39
-53.32
-55.81
-56.13
-53.89
-49.21
-42.64
-35.01
-27.11
-19.43
-12.19
-5.37
1.03
6.88
11.92
15.89
18.69
20.44
21.49
22.27
23.13
24.19
25.38
26.46
27.25
27.63
27.66
27.42
27.02
26.46
25.71
24.70
23.44
21.93
20.19
18.18
15.87
13.26
10.43
7.56
4.79
2.13
-0.56
-3.46
-6.72
-10.27
-13.91
-17.40
-20.66
-23.89
-27.44
-31.67
-36.75
-42.49
-48.31
-53.41
-56.92
-58.11
-56.59
-52.41
-46.03
-38.20
-29.73
-21.32
-13.43
-6.21
0.37
6.43
12.06
17.18
21.64
25.25
27.90
29.65
30.65
31.15
31.35
31.39
31.34
31.32
31.45
31.83
32.44
33.11
33.46
33.08
31.71
29.30
26.11
22.55
19.07
15.94
13.26
10.91
8.61
6.14
3.31
0.09
-3.45
-7.16
-10.92
-14.65
-18.34
-22.10
-26.09
-30.52
-35.48
-40.84
-46.10
-50.43
-52.90
-52.75
-49.66
-43.91
-36.21
-27.46
-18.46
-9.73
-1.56
5.90
12.47
17.88
21.96
24.69
26.28
27.15
27.79
28.60
29.79
31.32
32.96
34.37
35.26
35.49
35.09
34.25
33.17
31.96
30.56
28.79
26.48
23.60
20.33
16.96
13.80
10.95
8.32
5.59
2.49
-1.14
-5.24
-9.56
-13.81
-17.77
-21.40
-24.85
-28.45
-32.53
-37.35
-42.89
-48.77
-54.20
-58.11
-59.44
-57.45
-52.02
-43.74
-33.70
-23.16
-13.14
-4.22
3.51
10.22
16.07
21.15
25.36
28.62
30.89
32.29
33.06
33.47
33.72
33.98
34.30
34.70
35.15
35.60
35.94
36.06
35.80
35.02
33.61
31.57
28.99
26.05
22.92
19.74
16.51
13.13
9.50
5.57
1.42
-2.76
-6.80
-10.58
-14.16
-17.77
-21.71
-26.28
-31.65
-37.81
-44.45
-50.96
-56.51
-60.16
-61.09
-58.90
-53.67
-45.99
-36.79
-27.06
-17.56
-8.71
-0.59
6.90
13.82
20.08
25.50
29.84
32.98
34.97
35.99
36.31
36.21
35.88
35.51
35.26
35.22
35.39
35.67
35.81
35.52
34.51
32.60
29.83
26.43
22.77
19.26
16.16
13.45
10.86
7.99
4.52
0.42
-4.06
-8.54
-12.71
-16.53
-20.23
-24.12
-28.52
-33.57
-39.16
-44.98
-50.47
-54.89
-57.39
-57.23
-54.03
-47.90
-39.47
-29.66
-19.45
-9.61
-0.61
7.33
14.14
19.79
24.27
27.64
30.00
31.51
32.41
32.96
33.41
33.96
34.67
35.51
36.27
36.69
36.56
35.72
34.18
32.05
29.49
26.68
23.75
20.76
17.70
14.55
11.25
7.75
4.05
0.21
-3.64
-7.39
-10.95
-14.32
-17.58
-20.89
-24.46
-28.49
-33.17
-38.52
-44.27
-49.76
-54.01
-55.93
-54.72
-50.15
-42.64
-33.15
-22.90
-12.94
-3.98
3.69
10.06
15.23
19.32
22.43
24.65
26.14
27.14
27.93
28.74
29.69
30.70
31.58
32.11
32.12
31.62
30.77
29.77
28.78
27.86
26.88
25.67
24.03
21.86
19.22
16.25
13.10
9.84
6.43
2.77
-1.14
-5.13
-8.93
-12.24
-14.99
-17.39
-19.92
-23.17
-27.56
-33.25
-39.98
-47.09
-53.61
-58.41
-60.48
-59.16
-54.38
-46.73
-37.29
-27.30
-17.81
-9.41
-2.20
3.99
9.42
14.21
18.31
21.59
23.99
25.55
26.42
26.80
26.84
26.65
26.32
26.00
25.92
26.30
27.20
28.37
29.35
29.56
28.60
26.41
23.31
19.78
16.34
13.26
10.63
8.37
6.35
4.35
2.17
-0.40
-3.51
-7.17
-11.23
-15.40
-19.42
-23.23
-26.92
-30.75
-34.95
-39.53
-44.13
-48.06
-50.45
-50.46
-47.61
-41.91
-33.92
-24.54
-14.78
-5.48
2.80
9.79
15.39
19.56
22.35
23.89
24.42
24.32
23.95
23.61
23.49
23.68
24.11
24.66
25.11
25.25
24.93
24.15
22.98
21.57
19.97
18.18
16.13
13.76
11.11
8.21
5.15
1.90
-1.59
-5.36
-9.34
-13.34
-17.12
-20.54
-23.57
-26.37
-29.26
-32.64
-36.81
-41.87
-47.48
-52.86
-56.85
-58.29
-56.39
-51.02
-42.75
-32.65
-21.90
-11.54
-2.21
5.80
12.43
17.72
21.70
24.41
25.91
26.39
26.21
25.88
25.84
26.36
27.44
28.80
30.06
30.89
31.13
30.76
29.81
28.29
26.26
23.81
21.15
18.50
15.98
13.53
10.98
8.08
4.71
0.89
-3.23
-7.48
-11.69
-15.79
-19.73
-23.56
-27.38
-31.41
-35.93
-41.11
-46.85
-52.66
-57.62
-60.62
-60.65
-57.16
-50.29
-40.86
-30.13
-19.39
-9.63
-1.35
5.45
11.01
15.63
19.48
22.64
25.17
27.15
28.68
29.87
30.76
31.33
31.56
31.45
31.08
30.55
29.97
29.46
29.05
28.69
28.17
27.24
25.62
23.22
20.17
16.75
13.26
9.84
6.46
2.96
-0.72
-4.51
-8.25
-11.78
-15.12
-18.38
-21.80
-25.56
-29.81
-34.69
-40.28
-46.48
-52.81
-58.31
-61.74
-61.89
-58.15
-50.74
-40.70
-29.48
-18.46
-8.53
-0.03
7.18
13.40
18.84
23.51
27.31
30.05
31.70
32.43
32.54
32.44
32.42
32.62
33.02
33.53
34.03
34.47
34.79
34.90
34.63
33.71
31.94
29.26
25.84
22.00
18.20
14.80
11.98
9.66
7.53
5.18
2.26
-1.36
-5.54
-9.91
-14.08
-17.80
-21.04
-24.04
-27.21
-30.99
-35.65
-41.15
-47.07
-52.53
-56.44
-57.76
-55.82
-50.55
-42.48
-32.61
-22.02
-11.66
-2.18
6.08
13.03
18.62
22.83
25.69
27.30
27.89
27.88
27.79
28.00
28.71
29.79
30.95
31.82
32.21
32.15
31.80
31.28
30.63
29.69
28.30
26.34
23.87
21.05
18.09
15.12
12.17
9.12
5.85
2.27
-1.60
-5.60
-9.52
-13.15
-16.39
-19.32
-22.16
-25.30
-29.14
-33.94
-39.65
-45.76
-51.35
-55.18
-56.14
-53.61
-47.69
-39.17
-29.29
-19.24
-9.85
-1.55
5.58
11.61
16.56
20.46
23.36
25.40
26.82
27.84
28.61
29.22
29.66
29.91
29.96
29.82
29.53
29.18
28.87
28.63
28.36
27.83
26.71
24.71
21.78
18.11
14.12
10.29
6.90
3.99
1.34
-1.37
-4.39
-7.81
-11.52
-15.32
-19.02
-22.58
-26.09
-29.78
-33.91
-38.67
-44.04
-49.73
-55.12
-59.31
-61.35
-60.44
-56.29
-49.19
-40.01
-29.88
-19.85
-10.64
-2.49
4.67
11.00
16.56
21.26
24.92
27.47
28.95
29.65
29.93
30.15
30.58
31.32
32.29
33.31
34.18
34.69
34.71
34.16
32.98
31.15
28.71
25.78
22.58
19.41
16.52
13.98
11.66
9.30
6.61
3.43
-0.23
-4.21
-8.30
-12.32
-16.11
-19.61
-22.86
-26.05
-29.50
-33.61
-38.63
-44.51
-50.75
-56.42
-60.40
-61.64
-59.48
-53.87
-45.40
-35.12
-24.27
-13.90
-4.69
3.12
9.64
15.05
19.55
23.24
26.18
28.51
30.38
31.98
33.40
34.60
35.44
35.79
35.61
34.98
34.10
33.19
32.47
32.01
31.72
31.35
30.56
29.01
26.56
23.34
19.69
16.08
12.88
10.18
7.79
5.32
2.42
-1.03
-4.87
-8.73
-12.29
-15.38
-18.11
-20.74
-23.60
-26.93
-30.86
-35.47
-40.77
-46.64
-52.65
-58.03
-61.72
-62.67
-60.23
-54.41
-45.93
-35.90
-25.44
-15.39
-6.20
1.98
9.10
15.07
19.79
23.25
25.56
26.99
27.86
28.48
29.08
29.82
30.75
31.82
32.90
33.78
34.28
34.31
33.84
32.93
31.61
29.92
27.89
25.59
23.14
20.65
18.18
15.67
13.01
10.11
6.95
3.52
-0.10
-3.90
-7.78
-11.53
-14.89
-17.67
-19.91
-22.03
-24.70
-28.61
-34.08
-40.84
-48.03
-54.41
-58.71
-59.96
-57.71
-52.11
-43.85
-33.96
-23.54
-13.51
-4.48
3.34
9.98
15.58
20.27
24.12
27.11
29.27
30.69
31.50
31.92
32.12
32.22
32.24
32.12
31.84
31.49
31.22
31.19
31.37
31.52
31.14
29.75
27.09
23.29
18.82
14.36
10.48
7.54
5.52
4.13
2.81
1.05
-1.60
-5.27
-9.76
-14.60
-19.31
-23.57
-27.34
-30.82
-34.31
-38.08
-42.26
-46.77
-51.32
-55.31
-57.92
-58.25
-55.59
-49.77
-41.26
-31.07
-20.41
-10.35
-1.46
6.14
12.61
18.14
22.75
26.34
28.80
30.15
30.64
30.72
30.84
31.26
31.98
32.83
33.51
33.84
33.81
33.50
33.01
32.36
31.48
30.28
28.73
26.85
24.68
22.26
19.58
16.65
13.54
10.36
7.19
4.07
0.93
-2.30
-5.63
-9.00
-12.33
-15.61
-19.01
-22.83
-27.30
-32.52
-38.40
-44.68
-51.02
-56.92
-61.71
-64.61
-64.81
-61.81
-55.66
-47.05
-37.10
-26.99
-17.60
-9.33
-2.12
4.32
10.25
15.74
20.65
24.75
27.82
29.82
30.89
31.31
31.43
31.51
31.72
32.11
32.64
33.20
33.66
33.88
33.68
32.93
31.56
29.55
26.96
23.95
20.73
17.61
14.88
12.73
11.08
9.59
7.75
5.11
1.51
-2.87
-7.60
-12.20
-16.35
-19.93
-23.03
-25.83
-28.64
-31.80
-35.72
-40.67
-46.57
-52.84
-58.43
-62.07
-62.71
-59.80
-53.53
-44.68
-34.38
-23.79
-13.84
-5.05
2.37
8.51
13.60
17.82
21.32
24.17
26.47
28.33
29.91
31.31
32.52
33.43
33.89
33.82
33.32
32.64
32.01
31.56
31.22
30.73
29.83
28.34
26.28
23.83
21.20
18.56
16.02
13.54
11.07
8.51
5.76
2.78
-0.45
-3.91
-7.53
-11.18
-14.69
-17.98
-21.02
-23.97
-27.07
-30.66
-35.03
-40.26
-46.11
-51.99
-57.01
-60.19
-60.69
-58.08
-52.44
-44.32
-34.67
-24.48
-14.67
-5.81
1.85
8.33
13.78
18.28
21.88
24.55
26.33
27.35
27.88
28.24
28.69
29.33
30.13
30.93
31.58
31.97
32.08
31.90
31.45
30.67
29.45
27.62
25.11
21.98
18.51
15.10
12.18
9.94
8.25
6.70
4.73
1.87
-2.03
-6.77
-11.92
-16.92
-21.31
-24.90
-27.80
-30.43
-33.37
-37.16
-42.05
-47.82
-53.71
-58.64
-61.46
-61.30
-57.80
-51.20
-42.23
-31.88
-21.17
-10.87
-1.55
6.59
13.47
19.03
23.26
26.19
27.99
28.90
29.20
29.12
28.86
28.59
28.56
29.02
30.09
31.60
33.11
34.11
34.27
33.57
32.32
30.83
29.24
27.42
25.17
22.42
19.35
16.22
13.24
10.32
7.24
3.72
-0.34
-4.82
-9.39
-13.73
-17.58
-20.90
-23.80
-26.66
-29.98
-34.26
-39.83
-46.66
-54.19
-61.47
-67.29
-70.51
-70.32
-66.45
-59.21
-49.42
-38.22
-26.80
-16.08
-6.58
1.63
8.71
14.90
20.26
24.70
28.12
30.50
31.96
32.77
33.20
33.51
33.85
34.30
34.89
35.57
36.28
36.95
37.47
37.72
37.53
36.69
34.99
32.38
28.99
25.17
21.39
18.01
15.21
12.86
10.60
8.03
4.78
0.69
-4.09
-9.15
-14.00
-18.18
-21.54
-24.30
-26.99
-30.25
-34.62
-40.28
-47.07
-54.37
-61.22
-66.44
-68.88
-67.70
-62.69
-54.33
-43.66
-31.96
-20.36
-9.61
-0.10
8.03
14.78
20.20
24.41
27.59
29.95
31.72
33.11
34.27
35.34
36.43
37.50
38.44
39.05
39.20
38.93
38.42
37.91
37.45
36.91
35.98
34.39
32.02
28.96
25.44
21.72
17.99
14.34
10.74
7.12
3.39
-0.52
-4.60
-8.75
-12.81
-16.68
-20.33
-23.89
-27.59
-31.74
-36.58
-42.26
-48.70
-55.52
-61.92
-66.82
-69.06
-67.76
-62.66
-54.26
-43.60
-32.00
-20.56
-9.97
-0.47
7.94
15.30
21.57
26.56
30.11
32.21
33.09
33.21
33.16
33.47
34.40
35.90
37.63
39.15
40.09
40.30
39.88
39.06
38.06
36.89
35.41
33.40
30.69
27.34
23.63
19.97
16.70
13.93
11.45
8.85
5.69
1.74
-2.89
-7.83
-12.58
-16.78
-20.31
-23.32
-26.19
-29.39
-33.35
-38.41
-44.61
-51.59
-58.57
-64.39
-67.83
-67.90
-64.17
-56.92
-47.04
-35.72
-24.19
-13.39
-3.85
4.35
11.33
17.33
22.47
26.70
29.94
32.14
33.48
34.28
34.89
35.51
36.13
36.63
36.87
36.91
36.91
37.01
37.26
37.45
37.19
36.12
34.00
30.83
26.91
22.68
18.63
15.08
12.12
9.57
7.05
4.17
0.76
-3.15
-7.38
-11.74
-16.11
-20.51
-25.03
-29.76
-34.76
-40.11
-45.78
-51.60
-57.14
-61.58
-64.00
-63.60
-59.95
-53.23
-44.11
-33.51
-22.41
-11.54
-1.42
7.65
15.46
21.90
26.86
30.31
32.40
33.44
33.85
34.12
34.60
35.43
36.51
37.57
38.36
38.75
38.75
38.43
37.86
37.00
35.76
34.05
31.81
29.10
26.05
22.83
19.61
16.51
13.50
10.41
7.07
3.30
-0.88
-5.28
-9.60
-13.57
-17.06
-20.16
-23.13
-26.30
-30.03
-34.62
-40.26
-46.85
-53.94
-60.59
-65.58
-67.64
-65.90
-60.24
-51.32
-40.41
-28.99
-18.30
-9.02
-1.22
5.42
11.32
16.73
21.64
25.83
29.09
31.39
32.92
33.95
34.73
35.40
35.94
36.26
36.34
36.25
36.15
36.14
36.24
36.28
36.01
35.03
33.06
30.00
26.04
21.67
17.50
14.08
11.64
9.99
8.59
6.82
4.20
0.54
-4.02
-9.09
-14.19
-18.92
-23.05
-26.59
-29.80
-33.11
-36.99
-41.82
-47.65
-54.23
-60.84
-66.40
-69.67
-69.53
-65.41
-57.50
-46.77
-34.71
-22.77
-11.99
-2.75
5.02
11.57
17.07
21.50
24.81
27.11
28.70
29.99
31.36
32.96
34.72
36.39
37.63
38.12
37.75
36.65
35.16
33.76
32.75
32.19
31.83
31.18
29.87
27.74
24.90
21.64
18.27
14.97
11.78
8.64
5.45
2.18
-1.15
-4.48
-7.75
-10.91
-14.01
-17.14
-20.39
-23.85
-27.59
-31.64
-36.11
-41.07
-46.44
-51.85
-56.55
-59.58
-60.08
-57.61
-52.26
-44.64
-35.53
-25.73
-15.83
-6.30
2.48
10.15
16.44
21.24
24.61
26.74
27.91
28.41
28.55
28.65
29.04
29.91
31.29
32.93
34.46
35.49
35.77
35.25
34.07
32.44
30.55
28.50
26.32
23.99
21.52
18.97
16.43
13.98
11.61
9.19
6.54
3.52
0.06
-3.81
-7.89
-11.97
-15.80
-19.23
-22.23
-24.95
-27.74
-31.07
-35.37
-40.81
-47.15
-53.68
-59.34
-63.04
-63.86
-61.37
-55.69
-47.46
-37.68
-27.46
-17.69
-8.86
-1.10
5.75
11.90
17.40
22.12
25.84
28.42
29.88
30.47
30.58
30.63
30.95
31.70
32.83
34.16
35.40
36.29
36.63
36.35
35.47
34.03
32.05
29.53
26.50
23.08
19.52
16.10
13.06
10.49
8.31
6.31
4.26
1.97
-0.68
-3.72
-7.13
-10.82
-14.65
-18.50
-22.21
-25.70
-29.00
-32.25
-35.75
-39.88
-44.92
-50.85
-57.16
-62.83
-66.57
-67.20
-64.08
-57.38
-48.04
-37.38
-26.69
-16.83
-8.14
-0.57
6.06
11.84
16.77
20.78
23.86
26.12
27.77
28.98
29.92
30.64
31.17
31.54
31.79
31.99
32.17
32.33
32.42
32.35
31.98
31.19
29.88
27.99
25.54
22.62
19.40
16.14
13.09
10.39
8.05
5.91
3.71
1.18
-1.81
-5.20
-8.84
-12.49
-16.02
-19.38
-22.64
-25.90
-29.26
-32.80
-36.63
-40.86
-45.49
-50.40
-55.14
-58.97
-61.00
-60.43
-56.85
-50.38
-41.71
-31.81
-21.69
-12.11
-3.50
4.02
10.39
15.61
19.65
22.52
24.35
25.40
26.00
26.47
27.01
27.69
28.48
29.27
29.96
30.43
30.68
30.67
30.44
29.94
29.09
27.83
26.11
23.97
21.49
18.81
16.06
13.29
10.53
7.75
4.94
2.02
-1.02
-4.19
-7.42
-10.61
-13.70
-16.75
-19.97
-23.61
-27.93
-33.00
-38.67
-44.54
-50.01
-54.34
-56.75
-56.64
-53.67
-47.95
-40.02
-30.69
-20.86
-11.29
-2.47
5.34
12.05
17.55
21.81
24.81
26.71
27.76
28.32
28.67
28.99
29.33
29.65
29.89
30.04
30.10
30.07
29.98
29.81
29.50
28.95
27.97
26.40
24.11
21.13
17.71
14.22
10.98
8.12
5.49
2.71
-0.59
-4.59
-9.16
-13.92
-18.43
-22.39
-25.73
-28.66
-31.57
-34.86
-38.93
-43.97
-49.84
-56.04
-61.62
-65.41
-66.31
-63.67
-57.52
-48.57
-37.99
-26.96
-16.39
-6.71
1.97
9.66
16.35
21.92
26.25
29.33
31.38
32.73
33.74
34.66
35.60
36.50
37.23
37.65
37.68
37.32
36.61
35.71
34.76
33.82
32.79
31.41
29.39
26.57
23.02
19.08
15.16
11.59
8.46
5.61
2.79
-0.25
-3.59
-7.13
-10.72
-14.24
-17.73
-21.32
-25.21
-29.59
-34.60
-40.23
-46.34
-52.58
-58.36
-62.90
-65.35
-65.00
-61.53
-55.15
-46.51
-36.55
-26.21
-16.16
-6.72
2.00
9.93
16.98
22.93
27.59
30.84
32.79
33.77
34.21
34.55
35.09
35.93
36.95
37.93
38.70
39.15
39.31
39.20
38.76
37.80
36.16
33.71
30.59
27.10
23.65
20.56
17.95
15.69
13.47
10.89
7.73
3.95
-0.23
-4.43
-8.28
-11.51
-14.14
-16.49
-19.03
-22.29
-26.60
-32.01
-38.19
-44.52
-50.13
-54.10
-55.53
-53.84
-48.88
-41.05
-31.23
-20.53
-10.03
-0.52
7.57
14.19
19.44
23.51
26.56
28.78
30.32
31.40
32.19
32.81
33.32
33.69
33.85
33.77
33.49
33.07
32.58
32.07
31.47
30.63
29.37
27.56
25.19
22.34
19.17
15.88
12.65
9.54
6.58
3.65
0.62
-2.65
-6.21
-9.95
-13.68
-17.17
-20.37
-23.41
-26.67
-30.58
-35.42
-41.16
-47.38
-53.29
-57.92
-60.34
-59.88
-56.33
-49.99
-41.59
-32.04
-22.19
-12.67
-3.80
4.29
11.53
17.82
22.99
26.91
29.54
31.01
31.63
31.77
31.81
32.05
32.65
33.60
34.72
35.73
36.37
36.46
35.94
34.85
33.27
31.27
28.86
26.11
23.10
20.01
17.07
14.44
12.13
9.99
7.73
5.04
1.74
-2.15
-6.39
-10.63
-14.50
-17.82
-20.63
-23.22
-26.01
-29.44
-33.84
-39.28
-45.54
-52.00
-57.78
-61.80
-63.09
-61.10
-55.90
-48.16
-38.98
-29.52
-20.66
-12.80
-5.90
0.31
6.12
11.65
16.80
21.36
25.12
28.01
30.06
31.44
32.33
32.88
33.20
33.39
33.52
33.70
34.00
34.38
34.65
34.57
33.88
32.48
30.37
27.74
24.84
21.93
19.18
16.71
14.51
12.49
10.50
8.41
6.07
3.41
0.37
-3.05
-6.75
-10.55
-14.23
-17.54
-20.38
-22.81
-25.12
-27.71
-30.95
-35.04
-39.90
-45.08
-49.81
-53.15
-54.18
-52.33
-47.51
-40.22
-31.35
-21.95
-12.90
-4.80
2.13
7.90
12.68
16.68
20.03
22.80
24.99
26.55
27.49
27.94
28.09
28.20
28.42
28.75
29.07
29.23
29.16
28.87
28.44
27.93
27.27
26.32
24.84
22.70
19.88
16.56
13.06
9.79
7.06
5.03
3.60
2.46
1.18
-0.64
-3.19
-6.42
-10.08
-13.87
-17.52
-20.95
-24.18
-27.34
-30.59
-34.13
-38.13
-42.67
-47.56
-52.30
-56.05
-57.82
-56.86
-52.93
-46.41
-38.14
-29.14
-20.31
-12.18
-4.97
1.26
6.51
10.77
14.02
16.34
17.92
19.03
19.95
20.90
21.99
23.18
24.33
25.26
25.86
26.06
25.90
25.48
24.91
24.24
23.48
22.56
21.39
19.90
18.05
15.88
13.46
10.94
8.49
6.23
4.24
2.49
0.85
-0.86
-2.85
-5.26
-8.13
-11.38
-14.84
-18.35
-21.80
-25.21
-28.72
-32.50
-36.68
-41.32
-46.35
-51.59
-56.66
-61.01
-63.96
-64.79
-62.96
-58.30
-51.12
-42.15
-32.29
-22.41
-13.10
-4.64
2.94
9.65
15.50
20.38
24.23
27.05
29.02
30.42
31.61
32.90
34.43
36.19
38.01
39.67
40.96
41.77
42.07
41.91
41.36
40.48
39.26
37.65
35.58
33.01
30.03
26.80
23.58
20.55
17.79
15.21
12.63
9.83
6.70
3.23
-0.50
-4.37
-8.26
-12.09
-15.78
-19.33
-22.77
-26.25
-29.97
-34.12
-38.74
-43.73
-48.78
-53.39
-56.96
-58.85
-58.53
-55.71
-50.48
-43.32
